1583990996.00
64.000000
-0.00
-0.00
-0.00
-0.00
-0.00
-0.00
-0.00
-0.00
-0.00
-0.00
0.00
0.01
0.01
-0.00
-0.03
-0.05
-0.05
0.00
0.13
0.36
0.66
1.01
1.37
1.72
2.06
2.40
2.79
3.24
3.80
4.42
5.06
5.66
6.20
6.68
7.15
7.68
8.31
9.14
10.09
11.04
11.88
12.56
13.14
13.76
14.65
15.96
17.91
20.32
22.90
25.38
27.58
29.57
31.68
34.32
37.81
42.54
48.15
54.10
59.83
64.97
69.58
74.14
79.34
85.71
93.76
103.00
112.62
121.73
129.77
136.75
143.30
150.75
157.77
166.64
177.95
191.79
206.97
220.57
228.25
225.36
208.53
176.87
132.76
80.05
23.07
-34.94
-92.44
-149.16
-205.23
-260.37
-313.74
-363.86
-409.81
-450.87
-486.44
-515.65
-537.11
-549.06
-549.75
-538.11
-513.89
-478.30
-433.44
-381.95
-326.45
-269.20
-211.92
-155.87
-102.09
-51.43
-4.87
36.71
72.65
102.69
126.96
145.98
160.44
171.07
178.47
183.06
185.12
184.88
182.61
178.66
173.43
167.35
160.75
153.89
146.91
139.87
132.82
125.81
118.90
112.15
105.64
99.42
93.53
87.98
82.79
77.95
73.48
69.39
65.68
62.37
59.47
56.96
54.85
53.10
51.70
50.57
49.62
48.75
47.79
46.57
44.92
42.67
39.70
35.93
31.38
26.05
20.09
13.68
7.07
0.53
-5.68
-11.30
-16.15
-20.07
-22.99
-24.88
-25.80
-25.86
-25.18
-23.90
-22.19
-20.16
-17.94
-15.60
-13.17
-10.71
-8.23
-5.76
-3.28
-0.78
1.77
4.36
7.03
9.81
12.66
15.57
18.53
21.55
24.65
27.86
31.21
34.74
38.52
42.46
46.52
50.69
54.95
59.32
63.82
68.51
73.44
78.71
84.20
89.80
95.49
101.21
106.95
112.70
118.45
124.23
130.08
135.73
140.94
145.53
149.27
151.89
153.05
152.25
148.82
144.06
138.43
132.23
125.65
118.85
111.94
105.02
98.20
91.62
85.45
79.53
73.81
68.28
62.93
57.78
52.85
48.17
43.79
39.78
35.97
32.26
28.61
24.98
21.38
17.86
14.49
11.34
8.54
6.07
3.91
2.08
0.58
-0.60
-1.49
-2.12
-2.53
-2.74
-2.84
-2.89
-2.95
-3.05
-3.21
-3.44
-3.75
-4.11
-4.47
-4.80
-5.08
-5.27
-5.39
-5.49
-5.62
-5.82
-6.13
-6.53
-6.99
-7.48
-7.95
-8.41
-8.90
-9.50
-10.25
-11.18
-12.24
-13.35
-14.45
-15.48
-16.55
-17.81
-19.47
-21.69
-24.51
-27.81
-31.32
-34.78
-38.04
-41.17
-44.45
-48.30
-53.04
-58.79
-65.36
-72.29
-79.16
-85.68
-91.98
-98.52
-105.93
-114.74
-125.08
-136.67
-148.95
-161.27
-173.29
-185.05
-196.96
-209.64
-223.91
-240.65
-260.70
-284.23
-310.32
-336.45
-358.82
-373.41
-377.30
-369.86
-352.95
-330.11
-305.22
-281.28
-259.87
-241.42
-225.78
-212.65
-201.58
-191.68
-181.46
-169.06
-152.86
-132.08
-107.16
-79.58
-51.49
-24.98
-1.59
17.98
33.84
46.65
57.17
65.91
72.91
77.86
80.38
80.38
78.26
74.81
70.95
67.40
64.40
61.85
59.44
56.91
54.19
51.33
48.39
45.36
42.13
38.61
34.67
30.29
25.49
20.31
14.85
9.28
3.86
-1.16
-5.61
-9.50
-13.12
-16.91
-21.30
-26.57
-32.71
-39.31
-45.62
-50.64
-53.25
-52.45
-47.51
-38.17
-24.79
-8.34
9.75
27.79
44.24
58.02
68.65
76.27
81.35
84.48
86.06
86.29
85.23
82.91
79.49
75.24
70.49
65.61
60.83
56.34
52.20
48.36
44.72
41.16
37.53
33.71
29.66
25.32
20.75
16.04
11.30
6.59
1.91
-2.79
-7.56
-12.36
-17.02
-21.28
-24.92
-27.92
-30.51
-33.18
-36.44
-40.68
-45.94
-51.81
-57.44
-61.61
-63.05
-60.64
-53.83
-42.73
-28.17
-11.52
5.69
22.06
36.48
48.33
57.38
63.72
67.67
69.66
70.08
69.25
67.34
64.45
60.69
56.33
51.74
47.34
43.47
40.25
37.55
35.11
32.64
29.91
26.82
23.40
19.71
15.86
11.96
8.11
4.39
0.84
-2.56
-5.88
-9.20
-12.54
-15.89
-19.15
-22.22
-25.06
-27.76
-30.58
-33.89
-38.01
-43.03
-48.61
-53.94
-57.82
-58.98
-56.44
-49.85
-39.51
-26.35
-11.62
3.36
17.47
29.94
40.31
48.47
54.50
58.59
60.94
61.77
61.22
59.50
56.82
53.43
49.67
45.84
42.29
39.26
36.88
35.12
33.76
32.48
30.90
28.75
25.95
22.57
18.74
14.57
10.15
5.50
0.73
-4.06
-8.70
-13.07
-17.11
-20.86
-24.43
-27.96
-31.57
-35.38
-39.48
-43.88
-48.46
-52.82
-56.22
-57.72
-56.39
-51.70
-43.72
-33.17
-21.20
-9.06
2.20
11.92
19.77
25.74
29.96
32.69
34.27
35.02
35.17
34.77
33.79
32.11
29.75
26.87
23.81
20.96
18.63
17.00
15.99
15.40
14.86
14.08
12.85
11.18
9.17
7.02
4.89
2.79
0.64
-1.73
-4.45
-7.58
-11.10
-14.90
-18.84
-22.80
-26.65
-30.29
-33.78
-37.23
-40.84
-44.79
-49.04
-53.20
-56.52
-58.04
-56.80
-52.17
-44.07
-32.99
-19.91
-6.01
7.51
19.74
30.08
38.28
44.35
48.47
50.87
51.82
51.55
50.27
48.08
45.08
41.29
36.78
31.72
26.43
21.35
16.92
13.44
10.93
9.05
7.20
4.70
1.03
-3.95
-9.88
-16.09
-21.87
-26.86
-31.29
-35.91
-41.65
-49.11
-58.23
-68.26
-78.12
-86.96
-94.61
-101.72
-109.54
-119.35
-131.90
-146.95
-163.12
-178.11
-189.21
-193.81
-190.21
-178.08
-158.81
-135.37
-111.58
-90.97
-75.56
-65.11
-57.09
-47.79
-33.73
-13.22
13.09
42.64
72.27
99.62
123.87
145.63
165.87
184.89
201.68
214.22
220.39
218.93
210.27
196.42
180.42
165.33
153.30
144.98
139.52
135.06
129.60
121.88
111.88
100.56
89.28
78.94
69.60
60.82
52.45
45.49
42.06
44.44
53.77
69.30
88.77
109.96
132.07
156.06
183.38
213.88
244.42
269.19
281.76
277.91
257.32
223.38
181.32
136.18
91.78
51.14
17.19
-7.07
-19.77
-21.83
-17.56
-13.70
-16.95
-31.23
-56.53
-89.79
-127.16
-166.36
-208.04
-255.33
-311.79
-378.92
-454.26
-531.01
-599.64
-650.75
-678.23
-681.28
-664.22
-634.26
-598.44
-561.26
-524.15
-486.66
-448.41
-410.28
-374.32
-342.47
-315.32
-291.68
-269.29
-246.08
-221.23
-195.38
-170.31
-147.75
-128.46
-111.81
-96.05
-79.05
-59.23
-36.21
-10.94
14.75
38.81
59.81
77.45
92.50
106.44
120.74
136.37
153.43
171.30
189.07
205.97
221.78
236.83
251.87
267.88
286.04
307.70
334.21
366.27
402.96
441.01
475.08
499.00
507.88
499.73
476.07
440.95
399.25
355.01
310.76
267.79
226.88
188.80
154.21
123.23
95.35
69.83
46.43
25.98
10.09
0.43
-2.23
1.41
9.38
19.16
28.50
36.02
41.35
44.85
47.24
49.22
51.30
53.67
56.14
58.25
59.39
59.09
57.16
53.85
49.76
45.64
42.11
39.48
37.66
36.21
34.53
32.08
28.56
24.06
18.95
13.69
8.60
3.67
-1.45
-7.31
-14.34
-22.61
-31.76
-41.08
-49.83
-57.55
-64.25
-70.46
-77.03
-84.86
-94.57
-106.22
-118.86
-130.50
-138.22
-138.94
-130.44
-112.38
-86.60
-56.71
-26.84
-0.34
21.11
37.46
49.69
58.96
66.02
71.15
74.42
75.92
75.93
74.69
72.40
69.15
65.04
60.31
55.36
50.64
46.48
42.99
39.98
37.12
34.05
30.51
26.38
21.75
16.76
11.54
6.14
0.51
-5.38
-11.56
-17.97
-24.46
-30.88
-37.17
-43.39
-49.79
-56.77
-64.88
-74.59
-86.04
-98.64
-110.79
-119.97
-123.28
-118.50
-104.93
-83.87
-58.28
-31.74
-7.35
13.09
29.24
41.69
51.30
58.67
63.98
67.18
68.34
67.77
66.01
63.64
61.10
58.60
56.13
53.58
50.86
47.96
45.01
42.13
39.35
36.56
33.48
29.82
25.33
19.88
13.50
6.35
-1.36
-9.33
-17.22
-24.76
-31.77
-38.27
-44.50
-50.81
-57.70
-65.66
-75.15
-86.38
-99.00
-111.77
-122.50
-128.40
-127.02
-117.08
-99.14
-75.50
-49.37
-23.84
-0.91
18.65
35.07
48.85
60.31
69.43
76.08
80.28
82.35
82.82
82.16
80.65
78.37
75.36
71.76
67.89
64.14
60.83
57.99
55.40
52.66
49.41
45.49
40.92
35.85
30.41
24.62
18.37
11.50
3.93
-4.29
-12.92
-21.68
-30.24
-38.39
-46.09
-53.54
-61.17
-69.52
-79.22
-90.57
-103.19
-115.67
-125.65
-130.38
-127.60
-116.36
-97.51
-73.41
-47.12
-21.47
1.61
21.25
37.39
50.34
60.46
68.08
73.57
77.31
79.66
80.85
80.92
79.88
77.68
74.48
70.57
66.44
62.55
59.26
56.67
54.58
52.55
50.05
46.69
42.31
37.12
31.48
25.73
20.01
14.19
7.97
1.04
-6.70
-15.02
-23.48
-31.56
-38.94
-45.68
-52.23
-59.31
-67.71
-77.94
-89.88
-102.54
-114.04
-121.91
-123.78
-118.08
-104.62
-84.71
-60.76
-35.54
-11.50
9.73
27.44
41.59
52.51
60.58
66.14
69.48
70.90
70.75
69.42
67.32
64.88
62.40
60.06
57.91
55.90
53.90
51.78
49.44
46.80
43.80
40.43
36.68
32.58
28.07
23.03
17.31
10.78
3.44
-4.49
-12.64
-20.58
-27.92
-34.50
-40.51
-46.46
-53.15
-61.37
-71.54
-83.41
-95.65
-106.05
-111.94
-111.06
-102.29
-86.10
-64.43
-39.97
-15.48
6.95
26.11
41.62
53.57
62.32
68.29
71.86
73.50
73.61
72.54
70.58
67.92
64.73
61.17
57.48
53.87
50.60
47.77
45.41
43.30
41.13
38.52
35.25
31.28
26.74
21.84
16.70
11.26
5.38
-1.12
-8.27
-15.96
-23.88
-31.71
-39.09
-45.86
-52.10
-58.11
-64.49
-71.98
-81.21
-92.34
-104.63
-116.23
-124.49
-126.68
-120.90
-106.83
-85.87
-60.68
-34.30
-9.31
12.67
30.98
45.57
56.71
64.77
70.21
73.60
75.53
76.46
76.63
76.03
74.51
71.97
68.50
64.42
60.24
56.47
53.46
51.29
49.71
48.24
46.30
43.40
39.36
34.30
28.61
22.73
16.96
11.31
5.55
-0.66
-7.56
-15.14
-23.09
-31.01
-38.55
-45.60
-52.33
-59.19
-66.74
-75.61
-86.12
-98.04
-110.21
-120.60
-126.60
-125.84
-117.02
-100.47
-78.07
-52.63
-27.01
-3.40
16.97
33.69
46.85
56.77
63.86
68.61
71.54
73.09
73.57
73.12
71.80
69.70
67.03
64.04
61.03
58.25
55.91
54.06
52.64
51.42
49.97
47.81
44.54
40.03
34.50
28.42
22.31
16.45
10.82
5.09
-1.15
-8.18
-15.97
-24.15
-32.21
-39.68
-46.34
-52.33
-58.11
-64.40
-71.96
-81.39
-92.75
-105.16
-116.71
-124.75
-126.60
-120.52
-106.33
-85.57
-60.99
-35.56
-11.70
9.15
26.46
40.22
50.62
57.90
62.43
64.71
65.40
65.11
64.24
62.95
61.18
58.85
56.02
52.94
49.93
47.32
45.28
43.72
42.33
40.63
38.18
34.72
30.27
25.11
19.59
14.05
8.64
3.27
-2.22
-7.99
-14.04
-20.24
-26.36
-32.22
-37.85
-43.51
-49.64
-56.86
-65.61
-75.99
-87.37
-98.29
-106.61
-110.02
-106.75
-96.22
-79.27
-57.93
-34.71
-11.98
8.63
26.32
40.91
52.52
61.36
67.62
71.54
73.49
73.92
73.28
71.96
70.10
67.76
64.89
61.50
57.79
54.11
50.86
48.29
46.41
44.85
43.07
40.52
36.89
32.23
26.88
21.31
15.87
10.63
5.36
-0.36
-6.85
-14.17
-21.99
-29.77
-36.97
-43.28
-48.80
-53.94
-59.33
-65.64
-73.43
-82.96
-93.90
-105.08
-114.48
-119.58
-118.15
-109.03
-92.63
-70.91
-46.63
-22.51
-0.47
18.56
34.37
47.13
57.00
64.14
68.83
71.49
72.67
72.86
72.35
71.14
69.13
66.20
62.42
58.10
53.79
50.07
47.34
45.68
44.71
43.74
42.04
39.10
34.91
29.82
24.42
19.13
14.11
9.17
3.96
-1.86
-8.40
-15.56
-23.00
-30.31
-37.10
-43.15
-48.49
-53.45
-58.63
-64.76
-72.53
-82.15
-93.07
-103.82
-112.14
-115.59
-112.30
-101.60
-84.26
-62.29
-38.24
-14.54
6.97
25.25
39.93
51.12
59.20
64.72
68.29
70.49
71.69
72.11
71.76
70.60
68.62
65.91
62.73
59.42
56.39
54.02
52.51
51.79
51.48
50.98
49.67
47.25
43.78
39.63
35.28
31.10
27.12
23.12
18.79
13.92
8.53
2.91
-2.58
-7.58
-11.94
-15.76
-19.35
-23.18
-27.85
-33.85
-41.41
-50.19
-59.11
-66.44
-70.14
-68.55
-60.96
-47.96
-31.31
-13.29
3.95
18.92
30.95
40.02
46.42
50.48
52.45
52.58
51.14
48.48
45.04
41.17
37.18
33.27
29.56
26.17
23.22
20.88
19.20
18.15
17.48
16.76
15.55
13.50
10.57
6.97
3.06
-0.82
-4.56
-8.35
-12.51
-17.28
-22.70
-28.52
-34.35
-39.80
-44.75
-49.32
-53.91
-58.99
-65.05
-72.37
-80.88
-89.91
-98.13
-103.64
-104.45
-99.09
-87.21
-69.82
-49.06
-27.54
-7.54
9.47
23.00
33.29
40.90
46.38
50.08
52.26
53.23
53.32
52.91
52.27
51.46
50.31
48.54
46.00
42.81
39.37
36.21
33.73
32.00
30.64
29.05
26.64
23.12
18.64
13.58
8.41
3.31
-1.85
-7.37
-13.52
-20.30
-27.37
-34.21
-40.42
-45.81
-50.52
-54.81
-59.03
-63.52
-68.59
-74.51
-81.21
-88.00
-93.33
-95.01
-90.83
-79.45
-61.02
-37.28
-10.98
14.99
38.37
57.93
73.24
84.36
91.55
95.27
96.25
95.54
94.30
93.48
93.50
94.15
94.87
95.10
94.63
93.73
93.06
93.39
95.21
98.45
102.35
105.48
106.18
103.07
95.59
84.31
70.70
56.60
43.47
31.93
21.67
11.95
2.13
-7.97
-18.08
-27.92
-37.56
-47.56
-58.67
-71.31
-85.09
-98.66
-109.98
-116.87
-117.58
-111.31
-98.44
-80.72
-61.03
-42.85
-29.46
-22.90
-23.27
-28.61
-35.59
-40.71
-41.61
-37.80
-30.61
-22.41
-15.46
-11.16
-9.72
-10.42
-12.19
-14.01
-15.21
-15.48
-14.68
-12.80
-9.85
-6.03
-1.72
2.47
5.87
7.90
8.28
7.04
4.51
1.15
-2.69
-6.88
-11.48
-16.64
-22.35
-28.34
-34.09
-39.06
-42.95
-45.89
-48.46
-51.48
-55.51
-60.56
-65.74
-69.57
-70.35
-66.81
-58.49
-45.91
-30.35
-13.45
3.18
18.23
30.79
40.41
47.05
51.07
53.13
54.00
54.38
54.70
55.09
55.35
55.20
54.30
52.46
49.68
46.14
42.20
38.29
34.87
32.26
30.59
29.71
29.23
28.57
27.12
24.34
19.91
13.81
6.38
-1.76
-9.85
-17.16
-23.30
-28.25
-32.33
-36.04
-39.82
-43.87
-48.06
-51.97
-54.94
-56.19
-55.02
-50.94
-43.99
-34.86
-24.79
-15.30
-7.60
-2.24
1.12
3.38
5.57
8.36
11.78
15.38
18.53
20.68
21.63
21.48
20.46
18.83
16.91
15.08
13.79
13.46
14.32
16.18
18.43
20.16
20.56
19.11
15.85
11.30
6.19
1.30
-2.82
-5.83
-7.69
-8.58
-8.91
-9.21
-10.02
-11.80
-14.82
-19.08
-24.34
-30.12
-35.64
-40.04
-42.45
-42.26
-39.36
-34.14
-27.36
-19.86
-12.29
-4.98
1.96
8.44
14.31
19.32
23.20
25.75
26.86
26.50
24.74
21.63
17.31
11.99
5.93
-0.54
-7.12
-13.48
-19.33
-24.40
-28.49
-31.52
-33.49
-34.48
-34.60
-33.97
-32.66
-30.73
-28.21
-25.21
-21.92
-18.69
-15.98
-14.29
-14.02
-15.37
-18.24
-22.29
-26.97
-31.69
-35.85
-38.97
-40.70
-40.86
-39.49
-36.80
-33.12
-28.75
-23.89
-18.55
-12.66
-6.10
1.20
9.08
17.22
25.13
32.32
38.40
43.25
47.01
50.07
52.88
55.79
58.93
62.11
64.96
66.99
67.81
67.24
65.35
62.48
59.04
55.47
52.05
48.91
45.93
42.78
38.91
33.61
26.22
16.25
3.70
-10.93
-26.66
-42.22
-56.31
-67.77
-75.60
-79.00
-77.53
-71.12
-60.32
-46.25
-30.42
-14.45
0.32
13.01
23.34
31.37
37.50
42.24
46.13
49.50
52.23
53.76
53.15
49.54
42.62
32.91
21.79
11.01
2.09
-4.21
-8.05
-10.22
-11.63
-12.76
-13.47
-13.13
-11.09
-7.10
-1.42
5.09
11.44
16.62
19.63
19.34
14.51
4.25
-11.34
-30.70
-51.06
-69.36
-83.61
-93.78
-101.59
-109.11
-116.96
-123.24
-124.10
-115.77
-96.82
-69.32
-37.98
-7.85
17.86
38.68
56.13
71.98
86.77
99.47
108.22
111.36
108.13
98.43
82.20
59.07
28.84
-7.65
-47.57
-86.23
-118.36
-140.03
-150.01
-149.82
-142.27
-129.56
-112.20
-89.34
-60.49
-27.27
6.14
34.10
51.92
57.88
53.88
44.27
33.84
25.86
21.45
20.10
20.65
22.36
25.45
31.00
40.46
55.01
74.86
99.18
126.51
155.50
185.48
216.37
248.01
279.18
307.04
327.51
336.55
331.70
313.15
283.86
248.45
211.55
176.42
144.29
114.77
86.67
58.89
30.80
2.33
-26.35
-54.79
-82.31
-107.76
-129.65
-146.51
-157.43
-162.40
-162.28
-158.41
-152.05
-144.25
-135.85
-127.84
-121.52
-118.18
-118.49
-122.05
-127.32
-132.07
-134.42
-133.52
-129.79
-124.67
-119.73
-116.04
-113.84
-112.63
-111.47
-109.36
-105.51
-99.60
-91.92
-83.45
-75.72
-70.25
-67.95
-68.38
-69.63
-68.72
-62.65
-49.44
-28.97
-3.29
23.98
48.59
66.92
77.02
79.25
76.17
71.57
69.09
70.81
76.55
84.06
89.90
90.74
84.29
69.93
48.62
22.69
-4.72
-30.03
-50.06
-62.57
-66.83
-63.60
-54.82
-42.97
-30.55
-19.82
-12.94
-11.75
-17.41
-29.99
-48.01
-68.57
-87.92
-102.45
-109.83
-109.69
-103.65
-94.52
-85.09
-76.96
-70.09
-63.20
-54.82
-44.46
-33.12
-22.84
-15.56
-12.13
-11.79
-12.70
-12.97
-11.54
-8.52
-4.81
-1.46
0.85
1.93
2.21
2.16
2.23
2.50
2.68
2.19
0.41
-2.91
-7.35
-11.75
-14.60
-14.68
-11.60
-6.07
0.41
6.22
10.29
12.28
12.49
11.33
9.12
6.13
2.90
0.47
0.21
3.23
9.79
19.12
29.64
39.80
48.81
56.89
64.83
73.28
82.01
89.80
94.90
95.79
91.97
84.16
73.99
63.38
53.98
46.76
42.13
40.07
40.31
42.53
46.25
50.78
55.17
58.37
59.55
58.39
55.15
50.47
44.96
38.80
31.68
23.10
12.86
1.49
-9.80
-19.60
-26.97
-31.93
-35.39
-38.71
-42.82
-47.87
-53.12
-57.39
-59.69
-59.71
-57.91
-55.37
-53.33
-52.49
-52.82
-53.42
-53.15
-51.01
-46.73
-40.98
-34.99
-30.17
-27.55
-27.53
-29.99
-34.32
-39.42
-43.85
-46.26
-46.33
-45.42
-46.56
-53.27
-67.71
-89.03
-113.15
-134.22
-147.02
-149.18
-141.89
-129.14
-115.49
-103.82
-93.97
-82.73
-64.77
-34.47
12.29
75.93
151.84
230.61
299.81
347.25
364.41
348.98
305.86
246.04
183.70
132.60
102.40
96.14
109.68
133.33
155.21
164.88
156.02
127.02
79.92
18.51
-52.85
-129.46
-205.56
-274.31
-328.95
-364.76
-381.03
-381.26
-371.75
-359.05
-347.33
-337.52
-327.96
-316.32
-301.36
-283.86
-266.21
-251.30
-241.24
-236.37
-235.29
-235.32
-233.30
-226.45
-212.67
-190.28
-157.85
-114.12
-58.77
6.37
76.50
144.20
201.32
241.55
262.61
266.78
259.54
247.12
234.27
223.35
214.87
208.67
204.80
203.37
203.89
204.71
203.26
197.03
184.77
167.06
145.88
123.79
102.81
83.98
67.53
53.30
41.28
31.69
24.86
20.90
19.54
20.11
21.74
23.59
24.94
25.36
24.70
23.11
20.84
18.05
14.69
10.63
5.81
0.58
-4.29
-7.85
-9.38
-8.76
-6.60
-4.14
-2.86
-4.10
-8.66
-16.65
-27.42
-39.61
-51.55
-61.55
-68.37
-71.51
-71.19
-68.04
-62.73
-55.73
-47.18
-37.24
-26.22
-14.78
-3.90
5.46
12.59
17.25
19.69
20.53
20.55
20.54
21.16
23.02
26.53
31.91
39.01
47.27
55.73
63.19
68.53
71.01
70.51
67.47
62.76
57.37
52.20
47.86
44.68
42.80
42.14
42.37
42.78
42.45
40.34
35.89
29.17
21.03
12.82
5.88
1.29
-0.27
1.55
6.70
14.53
23.58
31.55
35.98
35.09
28.71
18.44
6.91
-3.41
-11.34
-17.17
-22.11
-27.25
-32.79
-38.16
-42.62
-45.92
-48.49
-51.09
-54.19
-57.65
-60.83
-62.95
-63.39
-61.82
-58.00
-51.71
-42.98
-32.41
-21.43
-11.82
-4.91
-0.64
2.61
7.42
15.94
28.78
44.59
60.79
74.86
85.49
93.09
99.34
106.28
115.26
126.46
138.85
150.56
159.45
163.49
161.14
151.45
134.30
110.35
80.91
47.97
14.02
-18.02
-45.21
-65.04
-75.91
-77.26
-69.42
-53.19
-29.64
-0.12
33.32
67.52
98.35
121.31
132.83
131.32
117.59
94.40
65.33
33.73
2.25
-26.89
-51.23
-67.90
-74.07
-68.08
-50.63
-25.29
2.10
24.94
37.76
37.76
25.36
3.68
-22.72
-49.42
-73.27
-92.82
-107.79
-118.42
-124.72
-126.41
-123.54
-117.15
-109.65
-104.41
-104.45
-111.05
-123.06
-137.21
-149.31
-155.99
-155.72
-149.11
-138.29
-125.76
-113.46
-102.46
-93.01
-85.18
-79.21
-75.69
-75.25
-78.16
-83.97
-91.67
-100.01
-108.02
-115.33
-122.18
-128.98
-135.83
-142.18
-146.83
-148.39
-145.90
-139.35
-129.95
-119.92
-111.98
-108.62
-111.34
-120.04
-132.81
-146.13
-155.68
-157.56
-149.49
-131.51
-105.96
-76.49
-46.66
-18.78
6.62
30.48
54.40
79.84
107.69
137.99
169.86
201.23
228.99
249.41
259.38
257.77
246.34
229.37
212.25
199.42
192.77
191.42
192.65
193.42
191.58
186.16
177.20
165.08
150.39
134.05
117.49
102.67
91.68
86.13
86.49
91.73
99.31
105.66
106.98
100.19
83.75
58.22
26.03
-9.27
-44.07
-75.85
-103.73
-128.30
-150.64
-170.92
-187.31
-196.14
-193.23
-175.97
-144.94
-103.86
-57.93
-11.35
34.44
80.72
129.81
182.78
238.09
291.72
338.64
374.49
396.61
404.29
398.15
379.65
350.83
314.14
272.18
227.40
181.49
134.96
87.20
37.11
-15.85
-70.44
-123.17
-168.77
-201.78
-218.49
-218.25
-203.69
-179.68
-151.94
-125.84
-105.77
-94.80
-94.38
-103.91
-120.49
-139.38
-155.38
-164.49
-165.15
-158.36
-146.69
-132.92
-118.69
-104.00
-87.56
-67.54
-42.58
-12.60
20.63
53.63
81.95
101.60
110.28
108.16
97.57
81.77
63.65
44.86
25.88
6.93
-11.14
-26.65
-37.63
-43.05
-43.60
-41.65
-40.23
-41.54
-45.87
-51.69
-56.52
-58.29
-56.33
-51.36
-44.87
-38.23
-32.17
-26.84
-22.18
-18.32
-15.68
-14.76
-15.98
-19.61
-25.90
-35.55
-49.98
-71.16
-100.85
-139.38
-184.61
-231.67
-273.87
-304.59
-319.36
-317.17
-300.61
-274.56
-244.49
-215.00
-189.11
-168.76
-155.08
-149.04
-151.18
-161.24
-177.90
-198.85
-221.26
-242.30
-259.64
-271.60
-277.11
-275.63
-266.82
-250.65
-227.54
-198.65
-165.96
-132.26
-100.74
-74.40
-55.55
-45.32
-43.59
-49.13
-60.05
-74.27
-89.90
-105.39
-119.56
-131.58
-140.77
-146.72
-149.10
-147.76
-142.76
-134.41
-123.20
-109.68
-94.47
-78.09
-60.99
-43.60
-26.26
-9.31
6.88
21.95
35.57
47.44
57.33
65.11
70.78
74.47
76.37
76.78
75.99
74.29
71.98
69.29
66.41
63.53
60.80
58.32
56.15
54.35
52.88
51.68
50.68
49.82
49.08
48.49
48.10
47.93
47.99
48.22
48.52
48.79
49.00
49.23
49.64
50.45
51.83
53.84
56.37
59.22
62.17
65.12
68.18
71.63
75.88
81.31
88.11
96.25
105.51
115.60
126.25
137.31
148.71
160.45
172.61
185.35
198.94
213.48
228.61
243.29
255.77
264.09
266.71
263.13
254.06
241.19
226.50
211.59
197.38
184.11
171.56
159.41
147.38
135.26
122.90
110.20
97.16
83.93
70.74
57.86
45.44
33.43
21.46
8.94
-4.71
-19.64
-35.18
-49.67
-60.77
-66.07
-63.96
-54.30
-38.48
-18.95
1.61
21.09
38.34
53.15
65.81
76.69
85.96
93.62
99.63
104.06
107.11
109.05
110.04
110.13
109.33
107.68
105.43
102.96
100.67
98.80
97.28
95.81
93.93
91.30
87.77
83.45
78.53
73.18
67.46
61.35
54.75
47.60
39.95
31.94
23.81
15.76
7.92
0.30
-7.39
-15.61
-24.88
-35.48
-47.13
-58.81
-68.74
-74.82
-75.23
-69.05
-56.64
-39.49
-19.83
0.10
18.49
34.32
47.30
57.61
65.71
72.04
76.95
80.66
83.21
84.62
84.87
84.08
82.52
80.55
78.56
76.85
75.53
74.53
73.64
72.56
70.96
68.62
65.41
61.41
56.84
51.97
47.02
42.07
36.99
31.56
25.57
18.95
11.83
4.48
-2.77
-9.71
-16.33
-22.85
-29.68
-37.28
-45.95
-55.60
-65.56
-74.53
-80.77
-82.59
-78.80
-69.21
-54.73
-37.13
-18.58
-0.97
14.41
27.04
37.01
44.72
50.66
55.13
58.38
60.53
61.68
61.93
61.35
60.05
58.17
55.93
53.61
51.52
49.87
48.67
47.71
46.63
45.05
42.75
39.71
36.15
32.31
28.39
24.37
20.06
15.20
9.64
3.48
-2.95
-9.20
-14.92
-19.96
-24.53
-29.01
-33.97
-39.89
-47.06
-55.41
-64.29
-72.48
-78.32
-80.10
-76.59
-67.50
-53.68
-36.87
-19.23
-2.64
11.70
23.43
32.78
40.24
46.12
50.45
53.02
53.66
52.42
49.74
46.32
42.87
39.92
37.71
36.20
35.26
34.68
34.31
33.93
33.29
32.07
30.06
27.17
23.50
19.29
14.76
10.06
5.21
0.15
-5.16
-10.72
-16.37
-21.90
-27.09
-31.79
-36.05
-40.15
-44.58
-49.89
-56.45
-64.07
-71.85
-78.20
-81.23
-79.39
-71.97
-59.50
-43.50
-26.01
-8.97
6.25
19.00
29.17
36.91
42.46
46.03
47.92
48.50
48.23
47.46
46.40
45.07
43.38
41.31
38.96
36.63
34.69
33.36
32.65
32.25
31.67
30.43
28.26
25.18
21.49
17.55
13.67
9.90
6.10
2.00
-2.65
-7.91
-13.62
-19.48
-25.13
-30.31
-34.94
-39.18
-43.47
-48.42
-54.59
-62.17
-70.69
-78.90
-84.94
-86.87
-83.30
-73.91
-59.66
-42.46
-24.58
-7.94
6.23
17.57
26.31
32.91
37.83
41.39
43.83
45.37
46.23
46.56
46.41
45.70
44.30
42.17
39.45
36.47
33.69
31.49
30.04
29.17
28.39
27.15
25.02
21.90
18.03
13.91
9.98
6.46
3.22
-0.09
-3.82
-8.18
-13.07
-18.21
-23.30
-28.11
-32.55
-36.66
-40.63
-44.76
-49.42
-55.00
-61.61
-68.79
-75.39
-79.70
-79.99
-75.10
-64.88
-50.42
-33.56
-16.40
-0.69
12.53
22.94
30.69
36.15
39.73
41.83
42.81
42.97
42.58
41.81
40.71
39.29
37.52
35.42
33.06
30.66
28.45
26.69
25.53
24.93
24.58
24.03
22.79
20.59
17.45
13.70
9.77
5.97
2.35
-1.33
-5.37
-9.95
-14.96
-20.05
-24.80
-28.89
-32.30
-35.28
-38.20
-41.48
-45.47
-50.46
-56.54
-63.43
-70.35
-75.94
-78.50
-76.51
-69.20
-56.97
-41.33
-24.43
-8.40
5.29
16.03
23.97
29.63
33.56
36.17
37.66
38.22
38.03
37.37
36.43
35.33
34.08
32.59
30.84
28.94
27.18
25.83
25.07
24.82
24.71
24.22
22.89
20.52
17.20
13.33
9.35
5.62
2.22
-1.02
-4.41
-8.21
-12.47
-17.01
-21.49
-25.60
-29.19
-32.37
-35.47
-38.91
-43.10
-48.31
-54.54
-61.37
-67.83
-72.50
-73.85
-70.66
-62.53
-50.10
-34.88
-18.83
-3.77
9.04
19.08
26.39
31.34
34.42
36.07
36.71
36.67
36.23
35.52
34.59
33.39
31.86
29.99
27.89
25.80
24.06
22.99
22.76
23.21
23.81
23.80
22.40
19.13
14.07
7.77
1.06
-5.25
-10.69
-15.14
-18.77
-21.78
-24.38
-26.62
-28.57
-30.40
-32.43
-35.11
-38.86
-43.99
-50.55
-58.27
-66.37
-73.63
-78.51
-79.50
-75.51
-66.36
-52.88
-36.70
-19.85
-4.13
9.24
19.80
27.66
33.26
37.07
39.46
40.73
41.10
40.80
40.01
38.85
37.30
35.32
32.84
29.96
26.92
24.06
21.73
20.08
19.00
18.18
17.18
15.63
13.35
10.38
6.93
3.24
-0.53
-4.30
-8.20
-12.41
-17.14
-22.48
-28.34
-34.44
-40.39
-45.89
-50.84
-55.50
-60.40
-66.18
-73.35
-81.83
-90.89
-99.05
-104.49
-105.58
-101.46
-92.41
-79.82
-65.74
-52.25
-40.90
-32.50
-27.12
-24.46
-24.04
-25.39
-28.11
-31.75
-35.90
-40.11
-44.07
-47.56
-50.43
-52.40
-52.97
-51.39
-46.82
-38.59
-26.47
-10.81
7.35
26.57
45.33
62.33
76.75
88.18
96.53
101.82
104.05
103.21
99.41
93.01
84.65
75.16
65.39
55.97
47.20
39.05
31.23
23.39
15.14
6.15
-3.64
-13.99
-24.21
-33.16
-39.37
-41.45
-38.47
-30.38
-18.12
-3.34
12.01
26.17
37.93
46.77
52.70
56.12
57.58
57.72
57.26
56.97
57.61
59.61
62.74
65.89
67.19
64.64
56.88
43.91
27.25
9.45
-6.70
-19.20
-27.23
-31.15
-31.94
-30.63
-27.94
-24.33
-20.17
-16.06
-12.84
-11.37
-12.21
-15.37
-20.20
-25.64
-30.61
-34.43
-37.00
-38.84
-40.78
-43.69
-48.16
-54.33
-61.79
-69.47
-75.79
-78.96
-77.46
-70.53
-58.53
-42.89
-25.61
-8.73
6.21
18.45
27.85
34.67
39.32
42.19
43.67
44.09
43.75
42.83
41.42
39.60
37.46
35.19
33.04
31.17
29.66
28.42
27.30
26.14
24.84
23.34
21.60
19.56
17.14
14.22
10.70
6.56
1.89
-3.16
-8.37
-13.52
-18.44
-23.01
-27.20
-31.06
-34.79
-38.70
-43.25
-48.86
-55.63
-63.09
-70.07
-74.83
-75.56
-71.06
-61.15
-46.91
-30.28
-13.45
1.80
14.44
24.25
31.52
36.71
40.23
42.37
43.37
43.46
42.90
41.94
40.77
39.47
38.03
36.37
34.50
32.48
30.54
28.94
27.83
27.13
26.52
25.49
23.61
20.72
16.97
12.73
8.38
4.05
-0.35
-5.09
-10.31
-16.00
-21.85
-27.48
-32.52
-36.82
-40.52
-44.02
-47.93
-52.89
-59.25
-66.85
-74.75
-81.33
-84.59
-82.84
-75.28
-62.41
-45.85
-27.81
-10.39
4.89
17.36
27.02
34.19
39.32
42.86
45.22
46.78
47.88
48.65
49.03
48.83
47.76
45.70
42.83
39.58
36.52
34.14
32.65
31.84
31.18
30.04
27.93
24.73
20.72
16.39
12.24
8.50
5.04
1.49
-2.50
-7.09
-12.15
-17.34
-22.29
-26.80
-30.83
-34.54
-38.17
-42.04
-46.51
-51.92
-58.37
-65.43
-71.99
-76.40
-76.86
-72.11
-61.88
-47.10
-29.62
-11.64
4.89
18.69
29.25
36.71
41.72
45.14
47.83
50.45
53.23
55.90
57.90
58.67
58.02
56.36
54.60
53.77
54.58
57.09
60.67
64.31
67.03
68.27
68.11
67.15
66.40
67.20
71.12
79.66
93.63
112.45
133.72
153.73
168.50
175.35
173.92
166.13
155.23
144.40
135.66
129.66
126.16
124.65
124.63
125.40
125.71
123.80
117.85
106.72
90.51
70.39
48.10
25.04
1.67
-22.75
-50.04
-82.76
-123.59
-174.28
-234.21
-299.22
-361.62
-411.70
-440.78
-444.35
-423.60
-384.70
-335.94
-284.51
-234.54
-187.19
-142.43
-100.92
-64.85
-37.09
-19.70
-12.60
-13.60
-19.42
-27.15
-35.01
-42.37
-48.97
-54.14
-56.76
-55.75
-51.02
-43.90
-36.82
-32.22
-31.36
-33.70
-37.24
-39.86
-40.43
-39.24
-37.49
-36.20
-35.26
-33.40
-28.99
-21.04
-9.88
3.03
15.93
27.74
38.49
49.11
60.57
73.11
85.90
97.33
105.77
110.20
110.60
107.75
102.78
96.69
90.05
83.00
75.47
67.48
59.22
51.08
43.43
36.46
30.09
24.06
18.07
11.97
5.86
0.05
-5.14
-9.46
-12.95
-15.86
-18.61
-21.56
-24.89
-28.55
-32.31
-35.88
-38.98
-41.54
-43.64
-45.57
-47.80
-50.83
-55.06
-60.43
-66.32
-71.40
-74.05
-72.82
-66.96
-56.81
-43.65
-29.27
-15.42
-3.32
6.43
13.80
19.09
22.72
25.12
26.63
27.55
28.05
28.15
27.81
26.97
25.62
23.84
21.79
19.66
17.67
16.04
14.95
14.48
14.54
14.83
14.95
14.50
13.29
11.41
9.18
6.98
5.09
3.58
2.25
0.78
-1.16
-3.75
-6.89
-10.31
-13.62
-16.48
-18.76
-20.58
-22.33
-24.55
-27.77
-32.24
-37.80
-43.68
-48.64
-51.28
-50.43
-45.55
-36.99
-25.83
-13.55
-1.55
9.18
18.22
25.49
31.16
35.32
38.06
39.48
39.86
39.61
39.19
38.92
38.79
38.52
37.75
36.24
34.11
31.77
29.74
28.43
27.94
28.04
28.31
28.32
27.77
26.56
24.75
22.47
19.89
17.15
14.34
11.47
8.45
5.16
1.48
-2.61
-7.04
-11.63
-16.20
-20.58
-24.73
-28.73
-32.81
-37.28
-42.46
-48.44
-54.85
-60.70
-64.54
-64.89
-60.81
-52.37
-40.75
-27.86
-15.68
-5.56
2.08
7.70
12.15
16.27
20.55
24.99
29.22
32.72
34.97
35.70
34.95
33.12
30.89
29.00
28.03
28.14
29.07
30.18
30.78
30.39
28.95
27.01
25.47
25.37
27.42
31.57
36.72
40.79
41.20
35.61
22.95
3.96
-18.73
-41.26
-59.80
-71.73
-76.45
-75.41
-71.27
-66.87
-64.14
-63.65
-64.64
-65.49
-64.39
-59.87
-51.10
-38.09
-21.60
-2.99
16.05
33.75
48.59
59.55
66.31
69.22
69.15
67.19
64.37
61.37
58.48
55.56
52.39
48.76
44.73
40.67
37.19
34.93
34.30
35.30
37.43
39.72
41.07
40.58
37.80
32.90
26.52
19.50
12.57
6.14
0.31
-5.06
-10.09
-14.85
-19.31
-23.41
-27.13
-30.55
-33.82
-37.13
-40.73
-44.80
-49.54
-54.94
-60.68
-66.01
-69.75
-70.61
-67.59
-60.38
-49.50
-36.17
-21.98
-8.33
3.78
13.88
21.85
27.84
32.04
34.71
36.18
36.87
37.22
37.55
37.94
38.23
38.04
36.99
34.87
31.78
28.17
24.65
21.80
19.90
18.86
18.26
17.54
16.27
14.26
11.58
8.44
5.01
1.39
-2.43
-6.49
-10.75
-15.05
-19.13
-22.78
-25.85
-28.39
-30.63
-32.91
-35.61
-39.08
-43.54
-48.97
-54.95
-60.59
-64.63
-65.74
-62.88
-55.80
-45.11
-32.18
-18.64
-5.93
5.08
14.12
21.33
26.98
31.29
34.41
36.43
37.54
37.96
37.91
37.49
36.68
35.37
33.51
31.18
28.73
26.55
24.98
24.10
23.69
23.31
22.52
20.98
18.65
15.71
12.50
9.33
6.40
3.75
1.23
-1.41
-4.41
-7.90
-11.83
-15.98
-20.00
-23.65
-26.83
-29.74
-32.75
-36.34
-40.86
-46.34
-52.35
-57.91
-61.68
-62.33
-58.94
-51.44
-40.62
-27.93
-14.98
-3.05
7.15
15.45
22.01
27.07
30.77
33.22
34.52
34.88
34.54
33.71
32.48
30.89
28.94
26.69
24.33
22.10
20.24
18.90
18.08
17.61
17.20
16.56
15.50
13.99
12.10
9.96
7.58
4.89
1.72
-2.00
-6.17
-10.53
-14.74
-18.53
-21.84
-24.81
-27.72
-30.93
-34.75
-39.42
-44.89
-50.72
-55.99
-59.45
-59.86
-56.42
-49.13
-38.80
-26.77
-14.49
-3.05
6.89
15.17
21.79
26.91
30.62
33.08
34.51
35.17
35.34
35.19
34.79
34.10
33.03
31.53
29.69
27.69
25.76
24.11
22.81
21.76
20.71
19.38
17.58
15.23
12.45
9.42
6.33
3.31
0.36
-2.66
-5.90
-9.47
-13.31
-17.25
-21.07
-24.66
-28.10
-31.66
-35.77
-40.73
-46.59
-52.91
-58.76
-62.82
-63.74
-60.56
-53.07
-41.96
-28.62
-14.71
-1.71
9.44
18.42
25.33
30.49
34.19
36.68
38.14
38.81
38.93
38.68
38.16
37.36
36.19
34.57
32.53
30.22
27.87
25.78
24.11
22.90
21.94
20.91
19.48
17.46
14.90
12.08
9.31
6.78
4.43
1.96
-1.01
-4.69
-8.98
-13.46
-17.57
-20.87
-23.27
-25.10
-27.02
-29.78
-33.88
-39.43
-45.97
-52.53
-57.83
-60.55
-59.64
-54.65
-45.90
-34.37
-21.47
-8.63
2.98
12.67
20.28
25.96
30.10
33.11
35.34
37.04
38.32
39.21
39.62
39.43
38.56
37.01
34.85
32.30
29.63
27.16
25.21
23.93
23.25
22.86
22.30
21.13
19.11
16.36
13.20
10.04
7.15
4.51
1.83
-1.22
-4.88
-9.12
-13.68
-18.13
-22.14
-25.51
-28.31
-30.84
-33.53
-36.79
-40.91
-45.89
-51.25
-56.08
-59.09
-59.07
-55.21
-47.50
-36.75
-24.36
-11.88
-0.54
8.98
16.55
22.42
26.89
30.27
32.70
34.33
35.26
35.62
35.49
34.83
33.61
31.82
29.58
27.17
25.00
23.40
22.54
22.31
22.36
22.24
21.54
20.06
17.84
15.15
12.31
9.64
7.29
5.20
3.19
0.98
-1.65
-4.77
-8.32
-12.07
-15.77
-19.22
-22.42
-25.47
-28.70
-32.45
-36.95
-42.17
-47.58
-52.24
-54.91
-54.44
-50.18
-42.27
-31.67
-19.81
-8.18
2.07
10.32
16.45
20.68
23.36
24.89
25.69
26.09
26.35
26.53
26.52
26.16
25.33
24.10
22.68
21.37
20.40
19.82
19.55
19.38
19.07
18.45
17.41
15.92
13.98
11.67
8.99
5.97
2.64
-0.94
-4.62
-8.21
-11.54
-14.52
-17.24
-19.87
-22.63
-25.70
-29.20
-33.23
-37.83
-42.87
-47.95
-52.22
-54.54
-53.76
-49.15
-40.79
-29.55
-16.86
-4.23
7.09
16.38
23.37
28.16
31.04
32.48
33.04
33.27
33.61
34.18
34.80
35.10
34.67
33.35
31.29
28.94
27.00
26.18
26.97
29.33
32.33
34.21
32.79
26.41
14.96
0.37
-13.81
-23.72
-26.73
-22.51
-13.03
-1.59
8.48
14.76
16.07
12.21
3.49
-9.24
-24.61
-40.68
-55.42
-67.44
-76.76
-84.63
-92.75
-102.00
-111.51
-118.75
-120.53
-114.51
-100.24
-79.37
-54.91
-29.95
-6.74
13.69
31.15
45.68
57.11
65.10
69.52
70.73
69.74
67.83
66.07
64.93
64.15
63.09
61.09
57.97
54.03
49.92
46.29
43.44
41.24
39.16
36.62
33.10
28.52
23.10
17.35
11.75
6.61
1.99
-2.34
-6.62
-10.99
-15.43
-19.73
-23.69
-27.23
-30.49
-33.85
-37.77
-42.65
-48.53
-54.91
-60.76
-64.64
-65.18
-61.54
-53.73
-42.66
-29.79
-16.72
-4.70
5.52
13.70
19.90
24.29
27.13
28.71
29.42
29.66
29.73
29.70
29.48
28.84
27.60
25.79
23.63
21.50
19.78
18.70
18.18
17.93
17.45
16.32
14.30
11.51
8.33
5.24
2.63
0.57
-1.22
-3.25
-6.05
-9.85
-14.48
-19.40
-23.83
-27.10
-28.89
-29.47
-29.63
-30.64
-33.85
-40.22
-49.74
-61.06
-71.53
-77.82
-76.98
-67.44
-49.76
-26.46
-1.34
21.64
39.44
50.58
55.22
54.74
51.05
45.80
39.84
33.13
25.09
15.37
4.44
-6.24
-14.68
-19.22
-19.22
-15.31
-8.96
-1.72
5.33
11.77
17.56
22.58
26.42
28.42
28.06
25.30
20.66
15.06
9.50
4.66
0.73
-2.53
-5.61
-9.00
-12.93
-17.39
-22.18
-27.15
-32.26
-37.52
-42.75
-47.41
-50.52
-50.96
-47.91
-41.21
-31.54
-20.20
-8.65
1.91
10.78
17.78
23.03
26.80
29.37
31.02
32.06
32.74
33.26
33.57
33.53
32.89
31.52
29.51
27.18
24.96
23.29
22.36
22.12
22.25
22.32
21.92
20.80
18.87
16.26
13.20
9.93
6.64
3.36
0.02
-3.49
-7.22
-11.10
-14.94
-18.52
-21.74
-24.63
-27.43
-30.50
-34.24
-38.97
-44.77
-51.31
-57.74
-62.75
-64.91
-63.11
-57.03
-47.25
-35.13
-22.27
-10.12
0.45
9.15
16.04
21.36
25.36
28.27
30.36
31.94
33.31
34.62
35.84
36.77
37.14
36.70
35.43
33.49
31.26
29.16
27.59
26.72
26.46
26.46
26.26
25.46
23.86
21.51
18.64
15.51
12.31
9.04
5.54
1.62
-2.82
-7.65
-12.57
-17.19
-21.16
-24.37
-26.93
-29.18
-31.59
-34.63
-38.63
-43.68
-49.45
-55.09
-59.34
-60.82
-58.43
-51.88
-41.78
-29.51
-16.72
-4.87
5.21
13.30
19.66
24.66
28.55
31.49
33.50
34.70
35.26
35.38
35.22
34.86
34.25
33.29
31.96
30.31
28.56
26.94
25.67
24.78
24.07
23.24
21.89
19.82
17.09
13.97
10.87
8.11
5.77
3.65
1.40
-1.35
-4.77
-8.79
-13.11
-17.37
-21.23
-24.57
-27.47
-30.17
-33.10
-36.67
-41.15
-46.48
-52.08
-56.88
-59.52
-58.79
-54.02
-45.43
-34.05
-21.38
-8.95
2.13
11.27
18.37
23.60
27.22
29.51
30.74
31.22
31.18
30.84
30.25
29.37
28.15
26.57
24.72
22.77
20.96
19.49
18.49
17.91
17.51
16.93
15.87
14.14
11.78
9.05
6.25
3.58
1.01
-1.62
-4.54
-7.83
-11.40
-14.99
-18.28
-21.15
-23.64
-26.01
-28.62
-31.83
-35.89
-40.85
-46.44
-51.97
-56.33
-58.27
-56.73
-51.22
-42.09
-30.43
-17.75
-5.53
5.23
14.06
21.02
26.35
30.38
33.31
35.25
36.28
36.45
35.89
34.72
33.10
31.23
29.25
27.29
25.52
24.06
23.05
22.58
22.56
22.74
22.70
22.03
20.46
18.02
15.02
11.90
9.06
6.58
4.25
1.66
-1.55
-5.54
-10.15
-15.02
-19.69
-23.83
-27.34
-30.31
-33.06
-36.00
-39.60
-44.16
-49.69
-55.60
-60.74
-63.60
-62.75
-57.44
-47.89
-35.28
-21.34
-7.79
4.09
13.66
20.84
25.87
29.15
31.12
32.23
32.92
33.49
34.02
34.39
34.37
33.74
32.45
30.66
28.67
26.86
25.53
24.84
24.74
24.99
25.17
24.84
23.65
21.46
18.42
14.89
11.26
7.84
4.68
1.64
-1.52
-5.01
-8.84
-12.86
-16.78
-20.36
-23.47
-26.13
-28.58
-31.17
-34.29
-38.28
-43.26
-48.91
-54.45
-58.61
-60.01
-57.61
-51.06
-40.92
-28.50
-15.47
-3.30
7.05
15.27
21.52
26.12
29.39
31.53
32.72
33.17
33.19
33.06
32.95
32.85
32.52
31.72
30.31
28.37
26.21
24.23
22.80
22.07
21.93
22.02
21.85
21.00
19.23
16.61
13.46
10.27
7.38
4.96
2.83
0.63
-2.02
-5.33
-9.21
-13.34
-17.32
-20.88
-23.97
-26.79
-29.68
-33.04
-37.18
-42.22
-47.94
-53.68
-58.33
-60.54
-59.10
-53.44
-43.86
-31.54
-18.21
-5.57
5.17
13.48
19.47
23.57
26.20
27.71
28.29
28.09
27.33
26.25
25.08
23.94
22.81
21.62
20.32
19.00
17.90
17.24
17.13
17.37
17.53
17.15
15.93
13.88
11.29
8.55
5.90
3.41
0.92
-1.81
-4.89
-8.29
-11.82
-15.19
-18.20
-20.75
-22.95
-25.04
-27.39
-30.37
-34.25
-39.08
-44.48
-49.63
-53.34
-54.30
-51.53
-44.76
-34.61
-22.43
-9.85
1.65
11.15
18.35
23.40
26.71
28.66
29.56
29.69
29.32
28.67
27.92
27.14
26.29
25.29
24.10
22.76
21.43
20.30
19.54
19.17
18.99
18.65
17.80
16.22
13.90
11.09
8.11
5.24
2.58
0.04
-2.60
-5.52
-8.77
-12.22
-15.69
-18.97
-22.02
-24.83
-27.54
-30.34
-33.54
-37.46
-42.32
-47.99
-53.73
-58.27
-60.07
-57.89
-51.32
-41.03
-28.56
-15.74
-4.13
5.42
12.80
18.33
22.48
25.60
27.92
29.60
30.88
31.91
32.75
33.25
33.06
31.80
29.27
25.64
21.45
17.48
14.45
12.79
12.50
13.16
14.20
15.10
15.55
15.50
15.05
14.32
13.37
12.15
10.52
8.32
5.42
1.83
-2.30
-6.67
-10.93
-14.79
-18.09
-20.90
-23.46
-26.19
-29.49
-33.70
-38.86
-44.59
-49.97
-53.66
-54.26
-50.76
-43.02
-31.86
-18.80
-5.59
6.32
16.10
23.62
29.13
33.07
35.86
37.84
39.30
40.51
41.67
42.77
43.61
43.88
43.31
41.86
39.81
37.69
36.15
35.65
36.29
37.77
39.44
40.52
40.45
39.09
36.86
34.58
33.15
33.14
34.51
36.57
38.32
38.96
38.32
36.97
35.95
36.25
38.29
41.64
45.25
47.88
48.63
47.31
44.51
41.57
40.25
42.35
49.15
60.77
75.57
90.05
99.45
99.07
85.88
59.70
23.36
-18.29
-60.07
-98.02
-130.18
-156.31
-176.89
-192.15
-201.77
-205.14
-202.10
-193.39
-180.71
-166.06
-151.00
-136.23
-121.51
-106.21
-89.94
-72.98
-56.33
-41.30
-28.95
-19.66
-12.99
-8.00
-3.73
0.28
3.90
6.56
7.77
7.59
6.67
6.00
6.39
8.00
10.25
12.05
12.22
9.99
5.20
-1.61
-9.25
-16.03
-20.05
-19.54
-13.42
-1.67
14.43
32.64
50.31
65.24
76.23
83.31
87.40
89.80
91.62
93.48
95.59
97.92
100.47
103.38
106.87
110.95
115.29
119.18
121.66
121.81
118.89
112.51
102.65
89.86
75.25
60.34
46.69
35.48
27.18
21.55
17.99
15.93
15.14
15.65
17.38
19.89
22.30
23.66
23.40
21.67
19.36
17.68
17.71
19.92
24.06
29.24
34.34
38.50
41.49
43.93
47.10
52.47
61.03
72.88
87.10
102.25
116.93
130.27
141.96
151.87
159.56
164.17
164.63
160.20
151.08
138.44
124.14
110.05
97.42
86.70
77.63
69.71
62.51
55.95
50.28
45.92
43.28
42.59
43.74
46.38
50.03
54.27
58.94
64.18
70.38
77.92
86.88
96.81
106.70
115.19
120.92
123.02
121.31
116.35
109.10
100.35
90.30
78.35
63.34
44.12
20.24
-7.70
-38.14
-69.17
-99.23
-127.82
-155.63
-184.35
-216.29
-254.00
-299.87
-355.38
-419.93
-489.83
-558.26
-616.58
-656.98
-675.11
-671.58
-651.30
-621.15
-587.10
-552.55
-518.24
-483.52
-447.91
-411.75
-375.82
-340.45
-304.89
-267.49
-226.44
-180.79
-131.03
-79.32
-29.04
16.16
53.33
81.09
99.94
111.89
119.51
124.90
129.04
131.77
132.51
130.97
127.59
123.46
119.72
117.02
115.25
113.79
111.93
109.37
106.28
103.23
100.84
99.59
99.85
102.02
106.74
114.93
127.63
145.58
168.82
196.40
226.35
255.98
282.42
303.18
316.71
322.76
322.52
318.33
312.89
308.40
305.63
303.67
300.38
293.35
281.04
263.45
242.00
218.74
195.49
173.13
151.56
130.19
108.49
86.31
63.84
41.37
18.97
-3.52
-26.40
-49.84
-73.74
-97.72
-121.40
-144.74
-168.16
-192.45
-218.25
-245.59
-273.58
-300.58
-324.73
-344.54
-359.16
-368.24
-371.50
-368.50
-358.58
-341.35
-317.18
-287.41
-254.12
-219.67
-186.01
-154.43
-125.61
-99.86
-77.38
-58.32
-42.74
-30.48
-21.05
-13.75
-7.87
-2.82
1.76
6.08
10.24
14.32
18.36
22.29
25.95
29.11
31.56
33.18
34.00
34.09
33.50
32.21
30.20
27.44
24.01
20.07
15.81
11.43
7.04
2.71
-1.50
-5.55
-9.39
-13.04
-16.68
-20.67
-25.45
-31.21
-37.67
-43.90
-48.53
-50.13
-47.75
-41.25
-31.37
-19.43
-6.85
5.21
16.07
25.42
33.12
39.13
43.44
46.13
47.47
47.80
47.45
46.62
45.33
43.49
41.09
38.30
35.47
33.03
31.30
30.32
29.83
29.43
28.65
27.20
24.99
22.11
18.80
15.32
11.86
8.53
5.34
2.22
-0.90
-4.08
-7.38
-10.77
-14.25
-17.79
-21.40
-25.10
-29.05
-33.48
-38.66
-44.76
-51.58
-58.41
-63.97
-66.69
-65.16
-58.65
-47.43
-32.73
-16.47
-0.58
13.39
24.62
33.01
38.92
42.97
45.73
47.61
48.82
49.41
49.27
48.31
46.58
44.24
41.64
39.13
37.02
35.40
34.19
33.17
32.05
30.57
28.52
25.86
22.71
19.37
16.19
13.43
11.19
9.31
7.49
5.41
2.88
-0.06
-3.23
-6.39
-9.36
-12.09
-14.74
-17.64
-21.30
-26.12
-32.18
-39.00
-45.36
-49.58
-49.91
-45.30
-35.75
-22.50
-7.67
6.46
18.15
26.57
31.86
34.73
35.99
36.24
35.80
34.84
33.49
31.97
30.43
28.94
27.37
25.56
23.45
21.18
19.07
17.47
16.55
16.20
16.07
15.72
14.81
13.18
10.88
8.03
4.81
1.37
-2.21
-5.85
-9.48
-13.05
-16.47
-19.70
-22.69
-25.44
-28.06
-30.71
-33.72
-37.47
-42.23
-47.90
-53.86
-58.85
-61.28
-59.69
-53.28
-42.26
-27.84
-11.87
3.72
17.43
28.45
36.63
42.26
45.83
47.86
48.85
49.17
49.15
48.97
48.67
48.15
47.21
45.69
43.59
41.06
38.42
35.99
34.02
32.57
31.49
30.47
29.20
27.44
25.10
22.21
18.88
15.21
11.29
7.20
3.03
-1.11
-5.07
-8.70
-11.94
-14.87
-17.72
-20.82
-24.59
-29.34
-35.22
-42.09
-49.33
-55.82
-60.05
-60.50
-56.09
-46.66
-33.16
-17.46
-1.79
11.97
22.74
30.39
35.47
38.76
40.85
42.07
42.51
42.28
41.54
40.50
39.30
37.94
36.31
34.29
31.89
29.33
26.94
25.01
23.63
22.61
21.61
20.23
18.22
15.55
12.38
8.96
5.49
2.05
-1.42
-5.06
-8.92
-12.99
-17.08
-20.94
-24.34
-27.18
-29.59
-32.01
-35.04
-39.25
-44.95
-51.87
-59.12
-65.25
-68.60
-67.72
-61.85
-51.22
-37.01
-21.09
-5.55
7.84
18.01
24.71
28.42
29.98
30.24
29.89
29.24
28.41
27.38
26.13
24.68
23.14
21.62
20.26
19.12
18.23
17.53
16.93
16.37
15.81
15.22
14.54
13.61
12.19
10.00
6.90
2.94
-1.55
-6.15
-10.49
-14.38
-17.83
-20.98
-23.99
-27.06
-30.38
-34.24
-38.91
-44.46
-50.47
-55.92
-59.30
-59.00
-53.97
-44.16
-30.69
-15.51
-0.72
12.00
21.87
28.92
33.73
36.95
39.10
40.43
41.02
40.94
40.30
39.27
38.01
36.66
35.23
33.76
32.28
30.83
29.46
28.13
26.74
25.14
23.15
20.66
17.71
14.42
10.99
7.54
4.10
0.56
-3.16
-7.12
-11.25
-15.45
-19.59
-23.57
-27.34
-30.90
-34.40
-38.12
-42.43
-47.64
-53.69
-59.96
-65.17
-67.68
-65.97
-59.28
-47.94
-33.34
-17.55
-2.57
10.18
20.10
27.38
32.59
36.33
39.05
40.96
42.12
42.53
42.20
41.18
39.59
37.59
35.39
33.19
31.15
29.28
27.57
25.93
24.30
22.70
21.13
19.58
17.93
16.04
13.72
10.86
7.40
3.36
-1.14
-5.91
-10.70
-15.25
-19.30
-22.76
-25.72
-28.51
-31.66
-35.68
-40.90
-47.13
-53.51
-58.56
-60.57
-58.07
-50.51
-38.46
-23.58
-8.04
6.15
17.70
26.25
32.10
35.93
38.41
39.99
40.94
41.38
41.40
40.98
40.05
38.50
36.29
33.51
30.38
27.24
24.37
21.96
20.02
18.46
17.13
15.89
14.60
13.09
11.20
8.76
5.66
1.91
-2.35
-6.86
-11.30
-15.36
-18.89
-21.89
-24.61
-27.48
-30.96
-35.39
-40.86
-46.99
-52.92
-57.34
-58.78
-56.01
-48.54
-36.83
-22.33
-7.02
7.16
18.80
27.37
33.08
36.57
38.56
39.57
39.86
39.55
38.71
37.40
35.71
33.76
31.64
29.47
27.37
25.51
23.99
22.87
22.03
21.25
20.27
18.88
17.01
14.71
12.15
9.40
6.42
3.09
-0.66
-4.77
-9.00
-13.06
-16.69
-19.84
-22.63
-25.41
-28.55
-32.47
-37.42
-43.37
-49.81
-55.69
-59.45
-59.49
-54.72
-45.05
-31.61
-16.40
-1.69
10.73
20.02
26.25
30.08
32.28
33.38
33.51
32.68
30.94
28.55
25.94
23.55
21.64
20.21
19.04
17.89
16.57
15.10
13.63
12.40
11.55
11.01
10.53
9.75
8.31
5.99
2.77
-1.12
-5.33
-9.43
-13.10
-16.16
-18.68
-20.93
-23.36
-26.49
-30.72
-36.11
-42.25
-48.11
-52.20
-52.95
-49.28
-40.99
-28.92
-14.78
-0.57
11.99
21.92
29.02
33.66
36.46
37.93
38.39
37.97
36.77
34.93
32.73
30.44
28.34
26.56
25.14
23.95
22.83
21.63
20.31
18.93
17.60
16.41
15.31
14.10
12.44
10.07
6.86
2.92
-1.46
-5.92
-10.16
-14.02
-17.52
-20.81
-24.15
-27.85
-32.22
-37.49
-43.64
-50.21
-56.28
-60.44
-61.22
-57.44
-48.72
-35.72
-20.01
-3.73
11.15
23.24
32.02
37.79
41.25
43.20
44.23
44.65
44.51
43.82
42.52
40.62
38.24
35.55
32.81
30.30
28.20
26.59
25.35
24.30
23.22
21.94
20.40
18.61
16.55
14.21
11.48
8.25
4.42
0.06
-4.63
-9.35
-13.76
-17.62
-20.93
-23.91
-27.01
-30.71
-35.38
-41.04
-47.25
-53.06
-57.19
-58.28
-55.29
-47.91
-36.65
-22.84
-8.23
5.45
16.93
25.61
31.54
35.21
37.27
38.30
38.71
38.69
38.33
37.62
36.54
35.08
33.30
31.30
29.20
27.16
25.28
23.65
22.30
21.21
20.29
19.41
18.40
17.13
15.50
13.50
11.13
8.47
5.62
2.75
0.03
-2.53
-5.13
-8.23
-12.40
-18.09
-25.39
-34.01
-43.38
-52.89
-61.90
-69.71
-75.37
-77.60
-75.12
-67.19
-54.15
-37.55
-19.84
-3.53
9.61
18.89
24.73
28.06
29.86
30.78
31.11
30.91
30.19
29.05
27.65
26.17
24.78
23.56
22.50
21.55
20.56
19.41
18.01
16.39
14.66
12.95
11.32
9.70
7.90
5.67
2.75
-0.93
-5.23
-9.80
-14.20
-18.07
-21.23
-23.74
-25.85
-27.86
-30.19
-33.14
-36.98
-41.63
-46.57
-50.73
-52.64
-50.90
-44.70
-34.28
-20.90
-6.50
6.93
17.96
25.93
30.98
33.67
34.70
34.60
33.75
32.35
30.54
28.49
26.38
24.39
22.66
21.27
20.09
18.99
17.74
16.25
14.59
12.97
11.63
10.68
9.94
8.97
7.29
4.52
0.67
-3.87
-8.48
-12.54
-15.71
-18.02
-19.80
-21.58
-23.85
-27.02
-31.39
-36.95
-43.36
-49.74
-54.67
-56.55
-54.03
-46.62
-34.92
-20.59
-5.73
7.69
18.43
26.09
31.05
34.00
35.57
36.20
36.05
35.20
33.78
31.97
29.98
27.95
25.92
23.83
21.67
19.47
17.42
15.71
14.46
13.64
13.03
12.35
11.31
9.74
7.56
4.74
1.35
-2.45
-6.35
-9.99
-13.02
-15.32
-17.08
-18.86
-21.37
-25.26
-30.86
-37.96
-45.77
-52.96
-57.91
-59.06
-55.36
-46.72
-34.07
-19.24
-4.41
8.48
18.27
24.73
28.36
30.05
30.65
30.73
30.53
30.06
29.23
28.00
26.38
24.51
22.57
20.74
19.16
17.88
16.88
16.19
15.89
16.10
16.84
17.93
18.91
19.16
18.05
15.28
10.90
5.45
-0.34
-5.80
-10.52
-14.48
-17.90
-21.13
-24.53
-28.40
-32.94
-38.27
-44.23
-50.21
-55.07
-57.31
-55.56
-49.08
-38.25
-24.51
-9.99
3.21
13.66
20.87
25.21
27.50
28.53
28.82
28.54
27.72
26.36
24.62
22.73
20.90
19.24
17.75
16.34
14.94
13.55
12.26
11.18
10.33
9.63
8.93
8.07
6.89
5.28
3.19
0.51
-2.79
-6.65
-10.84
-15.02
-18.82
-22.07
-24.83
-27.45
-30.40
-34.12
-38.81
-44.31
-50.07
-55.10
-58.13
-57.85
-53.38
-44.61
-32.40
-18.36
-4.46
7.66
17.07
23.70
28.05
30.77
32.28
32.72
32.06
30.35
27.93
25.31
23.03
21.39
20.35
19.53
18.51
17.03
15.18
13.33
11.94
11.24
11.08
10.91
10.04
7.93
4.47
-0.02
-4.87
-9.39
-13.16
-16.10
-18.51
-20.88
-23.78
-27.66
-32.77
-38.99
-45.72
-51.79
-55.65
-55.78
-51.20
-41.92
-28.98
-14.23
0.29
12.96
22.91
30.03
34.76
37.66
39.19
39.61
39.02
37.57
35.48
33.10
30.80
28.83
27.21
25.76
24.24
22.43
20.35
18.21
16.27
14.76
13.66
12.71
11.51
9.64
6.82
3.03
-1.50
-6.39
-11.14
-15.39
-18.92
-21.82
-24.41
-27.25
-30.94
-35.96
-42.49
-50.13
-57.85
-64.11
-67.12
-65.42
-58.42
-46.69
-31.86
-16.13
-1.55
10.50
19.59
26.04
30.48
33.50
35.46
36.43
36.47
35.70
34.35
32.70
30.96
29.25
27.54
25.78
23.98
22.18
20.54
19.21
18.31
17.84
17.64
17.41
16.74
15.25
12.65
8.93
4.30
-0.89
-6.19
-11.28
-15.93
-20.09
-23.84
-27.39
-31.07
-35.26
-40.31
-46.20
-52.33
-57.44
-59.84
-57.92
-50.86
-39.00
-23.91
-7.88
6.85
18.76
27.36
33.00
36.51
38.66
39.92
40.41
40.10
39.06
37.45
35.58
33.72
32.09
30.76
29.70
28.81
28.04
27.35
26.74
26.18
25.62
24.94
23.92
22.36
20.05
16.90
12.94
8.42
3.72
-0.68
-4.43
-7.35
-9.52
-11.26
-13.01
-15.21
-18.20
-22.17
-27.05
-32.48
-37.69
-41.54
-42.68
-39.90
-32.61
-21.11
-6.64
8.97
23.90
36.87
47.42
55.68
61.89
66.02
67.67
66.37
62.10
55.56
48.12
41.35
36.37
33.52
32.30
31.74
30.93
29.32
26.77
23.40
19.39
14.87
10.06
5.29
1.11
-1.89
-3.32
-3.14
-1.86
-0.31
0.55
-0.00
-2.24
-5.93
-10.47
-15.13
-19.35
-22.94
-26.20
-29.75
-34.27
-40.10
-46.86
-53.37
-57.82
-58.38
-53.83
-44.16
-30.61
-15.28
-0.49
11.99
21.31
27.52
31.18
32.99
33.43
32.74
31.07
28.59
25.55
22.32
19.20
16.40
13.95
11.75
9.62
7.44
5.19
2.93
0.82
-0.94
-2.26
-3.24
-4.11
-5.29
-7.14
-9.89
-13.51
-17.67
-21.91
-25.73
-28.83
-31.15
-32.94
-34.60
-36.57
-39.29
-43.05
-47.85
-53.25
-58.21
-61.25
-60.75
-55.53
-45.40
-31.42
-15.58
-0.25
12.61
22.07
28.19
31.75
33.66
34.54
34.59
33.79
32.08
29.64
26.90
24.33
22.29
20.85
19.81
18.83
17.63
16.16
14.61
13.32
12.54
12.29
12.27
11.94
10.69
8.15
4.30
-0.54
-5.77
-10.83
-15.32
-19.10
-22.28
-25.16
-28.05
-31.33
-35.31
-40.20
-45.90
-51.80
-56.75
-59.23
-57.80
-51.69
-41.15
-27.49
-12.71
1.22
12.85
21.61
27.62
31.48
33.86
35.27
36.05
36.35
36.27
35.83
35.04
33.90
32.39
30.53
28.42
26.18
23.98
21.97
20.23
18.77
17.47
16.16
14.67
12.87
10.71
8.19
5.35
2.18
-1.29
-5.04
-8.92
-12.74
-16.28
-19.42
-22.20
-24.86
-27.79
-31.38
-35.87
-41.19
-46.84
-51.81
-54.83
-54.55
-50.11
-41.41
-29.30
-15.38
-1.54
10.57
20.01
26.62
30.84
33.36
34.81
35.60
35.90
35.76
35.18
34.18
32.81
31.09
29.13
27.00
24.88
22.96
21.37
20.18
19.23
18.26
16.98
15.19
12.83
10.07
7.13
4.26
1.55
-1.01
-3.55
-6.22
-9.11
-12.27
-15.63
-19.05
-22.37
-25.41
-28.13
-30.62
-33.24
-36.45
-40.64
-45.80
-51.26
-55.70
-57.45
-55.06
-47.86
-36.36
-22.05
-7.05
6.65
17.70
25.59
30.60
33.39
34.69
35.07
34.90
34.42
33.79
33.13
32.40
31.52
30.28
28.55
26.33
23.88
21.62
19.94
19.05
18.82
18.81
18.46
17.35
15.25
12.33
8.98
5.67
2.75
0.27
-1.97
-4.37
-7.23
-10.70
-14.60
-18.55
-22.17
-25.19
-27.69
-30.02
-32.69
-36.16
-40.70
-46.17
-51.97
-57.03
-59.92
-59.27
-54.19
-44.67
-31.69
-16.93
-2.35
10.42
20.44
27.51
32.00
34.51
35.65
35.84
35.37
34.43
33.16
31.70
30.14
28.52
26.83
25.10
23.31
21.60
20.10
19.04
18.47
18.29
18.15
17.58
16.22
13.91
10.88
7.52
4.25
1.35
-1.25
-3.80
-6.60
-9.84
-13.48
-17.28
-20.94
-24.22
-27.09
-29.67
-32.26
-35.21
-38.84
-43.31
-48.46
-53.66
-57.78
-59.36
-57.06
-50.17
-39.00
-24.87
-9.77
4.33
15.96
24.49
30.07
33.29
34.85
35.26
34.83
33.70
32.00
29.89
27.58
25.32
23.24
21.43
19.87
18.56
17.48
16.71
16.32
16.27
16.38
16.31
15.69
14.29
12.07
9.22
6.02
2.77
-0.41
-3.52
-6.68
-9.98
-13.48
-17.09
-20.70
-24.19
-27.52
-30.82
-34.33
-38.39
-43.26
-48.87
-54.64
-59.45
-61.85
-60.45
-54.48
-44.10
-30.48
-15.48
-0.98
11.51
21.26
28.25
32.95
35.96
37.84
38.97
39.54
39.64
39.26
38.33
36.73
34.42
31.52
28.34
25.28
22.75
21.06
20.23
20.09
20.19
20.02
19.02
16.91
13.70
9.72
5.57
1.77
-1.33
-3.81
-6.09
-8.66
-11.89
-15.81
-20.13
-24.44
-28.36
-31.77
-34.79
-37.77
-41.17
-45.43
-50.72
-56.75
-62.61
-66.82
-67.69
-63.87
-54.92
-41.56
-25.55
-9.11
5.74
17.69
26.36
32.03
35.41
37.23
38.11
38.44
38.49
38.36
38.08
37.62
36.85
35.66
33.99
31.87
29.48
27.13
25.19
23.88
23.25
23.00
22.64
21.66
19.76
16.94
13.51
9.87
6.40
3.28
0.44
-2.36
-5.43
-9.01
-13.10
-17.55
-22.00
-26.06
-29.53
-32.51
-35.42
-38.88
-43.49
-49.46
-56.37
-63.13
-68.16
-69.71
-66.49
-58.07
-45.14
-29.37
-12.97
1.99
14.14
23.00
28.93
32.73
35.18
36.84
37.97
38.64
38.86
38.68
38.15
37.30
36.09
34.51
32.58
30.48
28.49
26.91
25.91
25.43
25.13
24.52
23.10
20.60
17.11
13.05
8.96
5.30
2.25
-0.37
-2.98
-5.99
-9.65
-13.90
-18.41
-22.76
-26.57
-29.75
-32.47
-35.17
-38.38
-42.59
-48.04
-54.52
-61.25
-66.97
-70.07
-69.11
-63.22
-52.48
-37.95
-21.43
-4.98
9.64
21.37
29.88
35.51
38.90
40.74
41.53
41.59
41.14
40.29
39.16
37.86
36.42
34.81
32.99
30.96
28.88
27.02
25.66
24.95
24.75
24.67
24.13
22.65
20.03
16.48
12.52
8.74
5.56
3.02
0.79
-1.70
-4.90
-8.99
-13.72
-18.55
-22.90
-26.41
-29.10
-31.36
-33.82
-37.14
-41.76
-47.81
-54.84
-61.86
-67.35
-69.63
-67.29
-59.69
-47.34
-31.78
-15.20
0.23
12.98
22.44
28.85
32.90
35.38
36.81
37.46
37.44
36.80
35.73
34.43
33.06
31.70
30.29
28.78
27.18
25.67
24.47
23.72
23.34
22.98
22.22
20.71
18.34
15.35
12.12
9.00
6.15
3.48
0.70
-2.43
-6.05
-10.10
-14.35
-18.47
-22.19
-25.39
-28.18
-30.92
-34.16
-38.42
-43.97
-50.52
-57.03
-61.88
-63.32
-59.96
-51.48
-38.73
-23.52
-8.06
5.80
16.93
25.12
30.72
34.30
36.35
37.18
36.98
35.97
34.44
32.67
30.91
29.27
27.78
26.43
25.26
24.34
23.75
23.51
23.50
23.44
23.04
21.99
20.18
17.70
14.84
11.94
9.21
6.67
4.05
1.00
-2.78
-7.35
-12.50
-17.81
-22.80
-27.16
-30.81
-34.07
-37.46
-41.62
-47.02
-53.68
-60.92
-67.38
-71.25
-70.82
-65.08
-54.17
-39.44
-22.98
-7.02
6.79
17.65
25.60
31.22
35.13
37.86
39.69
40.78
41.28
41.33
41.08
40.57
39.80
38.68
37.22
35.52
33.79
32.27
31.10
30.24
29.45
28.36
26.66
24.20
21.08
17.59
14.03
10.63
7.37
4.07
0.47
-3.59
-8.09
-12.81
-17.45
-21.73
-25.52
-28.92
-32.23
-35.90
-40.45
-46.21
-53.13
-60.55
-67.21
-71.40
-71.47
-66.40
-56.22
-42.04
-25.77
-9.55
4.91
16.62
25.42
31.67
35.97
38.90
40.86
42.11
42.83
43.07
42.80
41.96
40.49
38.40
35.87
33.21
30.81
29.00
27.93
27.51
27.40
27.18
26.36
24.65
22.00
18.61
14.93
11.37
8.26
5.59
3.08
0.25
-3.28
-7.65
-12.59
-17.60
-22.15
-25.96
-29.14
-32.13
-35.55
-39.93
-45.51
-52.06
-58.79
-64.41
-67.31
-65.97
-59.57
-48.32
-33.55
-17.35
-1.93
11.07
20.92
27.76
32.28
35.25
37.28
38.69
39.63
40.22
40.48
40.46
40.11
39.32
38.04
36.29
34.23
32.18
30.44
29.24
28.60
28.30
27.89
26.90
24.95
21.96
18.15
13.96
9.87
6.19
2.94
-0.13
-3.41
-7.22
-11.67
-16.53
-21.38
-25.73
-29.22
-31.80
-33.75
-35.72
-38.45
-42.58
-48.27
-54.97
-61.39
-65.73
-66.19
-61.58
-51.83
-38.00
-22.08
-6.29
7.54
18.32
25.82
30.46
33.00
34.22
34.75
34.96
35.02
34.92
34.56
33.81
32.60
31.00
29.19
27.42
25.92
24.81
24.04
23.41
22.66
21.50
19.77
17.48
14.78
11.90
9.04
6.23
3.32
0.15
-3.41
-7.34
-11.39
-15.29
-18.78
-21.82
-24.55
-27.33
-30.55
-34.60
-39.65
-45.57
-51.74
-56.96
-59.67
-58.37
-52.20
-41.39
-27.29
-12.00
2.34
14.18
22.90
28.70
32.25
34.27
35.30
35.67
35.55
35.05
34.24
33.19
31.92
30.44
28.80
27.09
25.40
23.90
22.71
21.93
21.54
21.36
21.06
20.26
18.70
16.31
13.27
9.87
6.37
2.86
-0.73
-4.50
-8.48
-12.56
-16.56
-20.30
-23.70
-26.87
-30.05
-33.60
-37.95
-43.38
-49.85
-56.67
-62.50
-65.53
-64.09
-57.31
-45.58
-30.51
-14.41
0.45
12.60
21.53
27.62
31.65
34.35
36.20
37.45
38.23
38.66
38.85
38.81
38.46
37.59
36.10
34.00
31.55
29.14
27.14
25.72
24.79
24.01
22.96
21.32
18.94
15.92
12.53
9.05
5.66
2.37
-0.95
-4.47
-8.32
-12.44
-16.64
-20.63
-24.19
-27.27
-30.07
-33.00
-36.59
-41.29
-47.28
-54.22
-61.20
-66.73
-69.11
-66.95
-59.69
-47.87
-33.05
-17.34
-2.72
9.49
18.84
25.65
30.54
34.12
36.73
38.47
39.37
39.47
38.98
38.09
36.97
35.62
33.99
32.02
29.84
27.72
26.06
25.10
24.80
24.78
24.49
23.40
21.26
18.20
14.61
10.97
7.62
4.66
1.89
-1.03
-4.42
-8.43
-12.91
-17.51
-21.75
-25.29
-28.05
-30.31
-32.60
-35.61
-39.88
-45.55
-52.16
-58.59
-63.16
-64.14
-60.29
-51.40
-38.43
-23.27
-8.09
5.31
15.96
23.75
29.08
32.54
34.62
35.64
35.88
35.66
35.25
34.81
34.29
33.49
32.17
30.26
27.90
25.46
23.35
21.85
20.98
20.50
19.97
18.98
17.30
14.95
12.21
9.46
6.98
4.80
2.70
0.27
-2.88
-6.91
-11.70
-16.83
-21.79
-26.15
-29.78
-32.86
-35.88
-39.43
-43.98
-49.55
-55.52
-60.62
-63.20
-61.77
-55.48
-44.62
-30.51
-15.14
-0.54
11.78
21.13
27.53
31.44
33.44
34.04
33.63
32.58
31.20
29.78
28.52
27.47
26.53
25.59
24.53
23.35
22.15
21.08
20.28
19.76
19.40
18.96
18.19
16.83
14.76
11.92
8.33
4.06
-0.71
-5.74
-10.70
-15.29
-19.33
-22.79
-25.88
-28.95
-32.40
-36.64
-41.96
-48.38
-55.45
-62.16
-66.99
-68.29
-64.81
-56.23
-43.35
-28.00
-12.35
1.69
13.02
21.44
27.44
31.70
34.74
36.86
38.12
38.56
38.27
37.41
36.14
34.54
32.67
30.61
28.57
26.81
25.60
25.00
24.82
24.65
23.99
22.51
20.13
17.06
13.66
10.29
7.11
4.05
0.96
-2.37
-6.03
-9.93
-13.89
-17.71
-21.24
-24.47
-27.58
-30.93
-35.01
-40.25
-46.78
-54.13
-61.15
-66.14
-67.34
-63.52
-54.48
-41.20
-25.60
-9.88
4.08
15.22
23.34
28.90
32.64
35.22
37.08
38.38
39.14
39.32
38.88
37.82
36.18
34.08
31.72
29.36
27.32
25.85
25.05
24.80
24.76
24.47
23.54
21.76
19.19
16.03
12.61
9.14
5.69
2.14
-1.67
-5.82
-10.27
-14.76
-19.01
-22.76
-25.96
-28.81
-31.78
-35.45
-40.34
-46.66
-54.06
-61.51
-67.39
-69.92
-67.67
-60.09
-47.78
-32.37
-16.03
-0.77
12.00
21.80
28.83
33.67
36.95
39.12
40.45
41.14
41.40
41.36
41.06
40.38
39.11
37.13
34.52
31.63
28.97
26.98
25.82
25.31
24.98
24.30
22.89
20.63
17.66
14.30
10.81
7.33
3.88
0.33
-3.49
-7.64
-12.08
-16.62
-21.01
-25.05
-28.65
-31.93
-35.22
-38.98
-43.68
-49.56
-56.30
-62.90
-67.75
-69.01
-65.31
-56.28
-42.85
-27.03
-11.21
2.59
13.34
21.02
26.33
30.12
33.00
35.19
36.63
37.24
37.06
36.31
35.24
34.04
32.75
31.33
29.70
27.85
25.90
24.08
22.49
21.15
19.91
18.50
16.67
14.30
11.42
8.16
4.65
0.99
-2.79
-6.61
-10.37
-13.95
-17.26
-20.29
-23.16
-26.10
-29.44
-33.53
-38.63
-44.74
-51.39
-57.56
-61.77
-62.48
-58.60
-49.94
-37.35
-22.49
-7.36
6.30
17.40
25.58
31.12
34.62
36.71
37.86
38.27
37.96
36.92
35.16
32.86
30.40
28.16
26.44
25.28
24.54
23.95
23.25
22.31
21.11
19.67
17.99
15.98
13.52
10.48
6.83
2.62
-2.00
-6.79
-11.48
-15.81
-19.65
-22.98
-25.98
-28.96
-32.33
-36.47
-41.70
-48.03
-55.09
-61.89
-66.93
-68.52
-65.35
-57.01
-44.25
-28.84
-12.95
1.50
13.31
22.18
28.44
32.70
35.57
37.53
38.92
39.97
40.80
41.37
41.52
41.04
39.80
37.87
35.48
33.00
30.77
29.01
27.70
26.67
25.64
24.30
22.47
20.05
17.01
13.42
9.32
4.79
-0.11
-5.26
-10.44
-15.40
-19.90
-23.77
-27.03
-29.90
-32.77
-36.14
-40.48
-46.07
-52.84
-60.17
-66.80
-71.03
-71.14
-65.96
-55.43
-40.69
-23.85
-7.29
7.08
18.27
26.27
31.74
35.52
38.29
40.38
41.93
42.97
43.53
43.65
43.29
42.35
40.73
38.44
35.67
32.83
30.35
28.53
27.37
26.56
25.60
24.11
21.89
19.04
15.79
12.38
8.88
5.25
1.39
-2.73
-7.03
-11.35
-15.56
-19.60
-23.48
-27.32
-31.27
-35.52
-40.30
-45.81
-52.02
-58.52
-64.32
-68.03
-68.09
-63.44
-53.89
-40.39
-24.75
-9.05
4.94
16.25
24.77
30.97
35.45
38.74
41.06
42.53
43.21
43.27
42.83
42.03
40.83
39.20
37.14
34.78
32.43
30.46
29.07
28.27
27.79
27.18
26.00
23.99
21.15
17.77
14.22
10.82
7.67
4.62
1.38
-2.33
-6.58
-11.26
-16.06
-20.64
-24.72
-28.22
-31.30
-34.38
-38.01
-42.76
-48.94
-56.24
-63.53
-69.03
-70.74
-67.12
-57.77
-43.69
-27.02
-10.36
4.07
15.03
22.38
26.85
29.51
31.30
32.76
33.99
34.83
35.07
34.60
33.47
31.87
30.02
28.12
26.29
24.56
22.97
21.52
20.27
19.20
18.24
17.24
16.04
14.52
12.61
10.27
7.52
4.30
0.63
-3.46
-7.83
-12.22
-16.40
-20.15
-23.46
-26.50
-29.68
-33.53
-38.53
-44.83
-51.98
-58.86
-63.81
-65.09
-61.46
-52.70
-39.71
-24.30
-8.58
5.60
17.11
25.60
31.35
34.94
37.02
38.08
38.49
38.49
38.19
37.61
36.68
35.31
33.46
31.23
28.85
26.68
24.97
23.85
23.21
22.73
22.00
20.66
18.52
15.60
12.15
8.50
4.93
1.56
-1.70
-5.09
-8.85
-13.09
-17.66
-22.23
-26.41
-30.00
-33.06
-36.00
-39.40
-43.81
-49.50
-56.14
-62.73
-67.69
-69.29
-66.14
-57.76
-44.85
-29.11
-12.73
2.27
14.56
23.72
29.99
34.08
36.64
38.25
39.24
39.82
40.05
39.94
39.44
38.48
37.08
35.30
33.29
31.26
29.42
27.90
26.71
25.71
24.60
23.09
20.92
18.02
14.55
10.89
7.37
4.21
1.33
-1.54
-4.75
-8.54
-12.88
-17.49
-21.97
-25.95
-29.27
-32.08
-34.77
-37.90
-42.02
-47.50
-54.18
-61.25
-67.19
-70.09
-68.22
-60.73
-48.02
-31.76
-14.39
1.68
14.72
24.05
30.01
33.42
35.25
36.21
36.69
36.86
36.78
36.50
36.04
35.36
34.34
32.87
30.97
28.81
26.80
25.33
24.66
24.70
25.05
25.08
24.25
22.31
19.36
15.76
11.94
8.22
4.69
1.24
-2.31
-6.11
-10.19
-14.43
-18.62
-22.57
-26.15
-29.43
-32.68
-36.35
-40.93
-46.72
-53.61
-60.79
-66.86
-70.05
-68.81
-62.36
-51.09
-36.43
-20.44
-5.19
7.83
17.96
25.27
30.26
33.56
35.66
36.93
37.61
37.84
37.69
37.16
36.21
34.81
33.04
31.05
29.05
27.23
25.66
24.28
22.93
21.41
19.61
17.47
15.03
12.40
9.59
6.64
3.49
0.09
-3.57
-7.47
-11.52
-15.59
-19.54
-23.23
-26.58
-29.64
-32.65
-36.08
-40.43
-46.05
-52.77
-59.67
-65.16
-67.34
-64.68
-56.59
-43.80
-28.10
-11.87
2.79
14.56
23.14
28.99
32.88
35.47
37.11
37.91
37.90
37.14
35.81
34.11
32.24
30.32
28.43
26.62
24.95
23.42
21.98
20.53
18.94
17.17
15.21
13.12
10.90
8.47
5.71
2.45
-1.38
-5.69
-10.28
-14.84
-19.13
-23.02
-26.57
-29.97
-33.48
-37.39
-41.99
-47.47
-53.85
-60.70
-67.04
-71.35
-71.95
-67.58
-57.94
-43.94
-27.51
-10.94
3.79
15.53
24.08
29.93
33.82
36.41
38.14
39.24
39.84
40.06
39.95
39.54
38.73
37.43
35.63
33.47
31.24
29.31
27.93
27.15
26.70
26.11
24.90
22.79
19.82
16.29
12.64
9.15
5.84
2.45
-1.38
-5.87
-10.98
-16.37
-21.59
-26.26
-30.26
-33.82
-37.43
-41.72
-47.17
-53.85
-61.22
-68.02
-72.51
-72.98
-68.29
-58.40
-44.39
-28.20
-12.01
2.41
14.09
22.87
29.16
33.58
36.64
38.76
40.19
41.10
41.62
41.79
41.52
40.69
39.19
37.08
34.65
32.34
30.57
29.60
29.33
29.33
29.01
27.86
25.62
22.42
18.63
14.73
11.06
7.68
4.38
0.85
-3.19
-7.79
-12.79
-17.83
-22.58
-26.79
-30.43
-33.74
-37.19
-41.39
-46.84
-53.71
-61.48
-68.86
-73.98
-74.88
-70.28
-60.04
-45.36
-28.40
-11.59
3.17
14.89
23.52
29.66
34.08
37.42
40.02
42.06
43.58
44.65
45.29
45.47
45.14
44.17
42.52
40.27
37.70
35.22
33.26
32.15
31.91
32.27
32.63
32.35
30.93
28.23
24.48
20.20
15.87
11.73
7.68
3.38
-1.49
-7.00
-12.84
-18.48
-23.35
-27.18
-30.11
-32.64
-35.51
-39.43
-44.81
-51.61
-59.16
-66.13
-70.78
-71.40
-66.89
-57.20
-43.46
-27.63
-11.90
1.98
13.10
21.38
27.29
31.47
34.44
36.52
37.87
38.56
38.62
38.08
36.96
35.32
33.34
31.24
29.28
27.65
26.39
25.40
24.46
23.31
21.76
19.76
17.39
14.83
12.23
9.64
6.97
4.07
0.78
-2.94
-7.00
-11.25
-15.46
-19.50
-23.28
-26.83
-30.34
-34.14
-38.64
-44.17
-50.65
-57.39
-63.03
-65.84
-64.26
-57.49
-45.91
-30.98
-14.84
0.41
13.23
22.97
29.72
34.08
36.74
38.28
39.03
39.20
38.90
38.23
37.31
36.21
34.98
33.62
32.15
30.61
29.12
27.82
26.78
25.97
25.18
24.13
22.48
20.07
16.92
13.27
9.50
5.93
2.69
-0.36
-3.55
-7.24
-11.59
-16.44
-21.38
-25.86
-29.51
-32.32
-34.69
-37.33
-41.03
-46.34
-53.27
-61.10
-68.36
-73.07
-73.35
-68.01
-57.12
-41.99
-24.83
-8.01
6.63
18.20
26.71
32.73
36.97
40.01
42.19
43.75
44.85
45.62
46.12
46.30
46.01
45.07
43.36
40.94
38.06
35.15
32.68
30.94
29.94
29.29
28.41
26.70
23.80
19.78
15.07
10.31
6.13
2.84
0.41
-1.60
-3.81
-6.82
-10.91
-15.94
-21.36
-26.43
-30.53
-33.45
-35.53
-37.55
-40.52
-45.26
-52.02
-60.27
-68.59
-74.97
-77.27
-73.94
-64.58
-50.20
-32.89
-15.24
0.57
13.26
22.66
29.38
34.27
37.93
40.64
42.39
43.20
43.24
42.89
42.44
41.97
41.31
40.14
38.30
35.92
33.48
31.55
30.51
30.33
30.55
30.48
29.51
27.34
24.06
20.05
15.78
11.62
7.78
4.23
0.84
-2.66
-6.45
-10.70
-15.39
-20.31
-25.11
-29.39
-32.90
-35.63
-37.91
-40.34
-43.65
-48.37
-54.63
-61.87
-68.76
-73.45
-74.03
-69.22
-58.85
-44.09
-27.06
-10.16
4.67
16.44
25.09
31.15
35.33
38.15
39.93
40.86
41.12
40.93
40.48
39.82
38.87
37.48
35.56
33.20
30.68
28.35
26.53
25.32
24.52
23.71
22.39
20.17
17.00
13.19
9.29
5.80
2.98
0.68
-1.55
-4.26
-7.79
-12.10
-16.77
-21.18
-24.83
-27.56
-29.66
-31.71
-34.46
-38.50
-44.05
-50.84
-57.96
-63.92
-66.95
-65.47
-58.61
-46.69
-31.17
-14.34
1.47
14.52
24.06
30.27
33.93
35.91
36.88
37.25
37.20
36.82
36.21
35.46
34.58
33.56
32.39
31.06
29.65
28.28
27.13
26.32
25.91
25.73
25.41
24.45
22.41
19.12
14.84
10.23
6.05
2.82
0.54
-1.24
-3.28
-6.20
-10.20
-15.02
-20.10
-24.83
-28.85
-32.14
-34.98
-37.91
-41.54
-46.40
-52.67
-59.92
-66.93
-71.85
-72.73
-68.13
-57.85
-43.07
-26.04
-9.25
5.34
16.78
25.17
31.15
35.40
38.38
40.28
41.21
41.42
41.21
40.87
40.48
39.85
38.74
36.98
34.64
32.03
29.61
27.74
26.60
26.13
26.00
25.77
24.98
23.31
20.64
17.15
13.20
9.25
5.66
2.57
-0.23
-3.09
-6.40
-10.40
-15.01
-19.87
-24.53
-28.56
-31.80
-34.44
-36.91
-39.86
-43.89
-49.40
-56.27
-63.79
-70.51
-74.60
-74.26
-68.37
-56.98
-41.44
-23.97
-7.02
7.57
18.89
27.00
32.53
36.25
38.75
40.33
41.17
41.44
41.28
40.87
40.21
39.27
37.93
36.14
33.96
31.60
29.35
27.50
26.28
25.72
25.63
25.60
25.15
23.86
21.51
18.23
14.41
10.57
7.10
4.19
1.65
-0.90
-3.90
-7.67
-12.25
-17.36
-22.46
-27.00
-30.56
-33.05
-34.80
-36.47
-38.91
-42.84
-48.65
-56.03
-63.89
-70.53
-73.94
-72.43
-65.20
-52.70
-36.53
-19.00
-2.43
11.49
21.96
29.09
33.52
36.03
37.28
37.69
37.52
36.96
36.16
35.25
34.27
33.15
31.78
30.07
28.05
25.94
24.05
22.73
22.17
22.31
22.78
22.97
22.28
20.32
17.05
12.88
8.46
4.46
1.24
-1.27
-3.61
-6.46
-10.33
-15.20
-20.50
-25.42
-29.24
-31.79
-33.41
-34.92
-37.15
-40.67
-45.59
-51.56
-57.73
-62.84
-65.46
-64.19
-58.15
-47.39
-33.01
-16.95
-1.38
11.94
22.10
29.06
33.40
35.79
36.79
36.71
35.76
34.22
32.49
30.95
29.84
29.13
28.54
27.74
26.53
25.00
23.50
22.44
22.02
22.17
22.48
22.40
21.45
19.46
16.54
13.03
9.32
5.67
2.13
-1.43
-5.24
-9.43
-13.91
-18.40
-22.53
-26.00
-28.78
-31.18
-33.78
-37.25
-42.14
-48.61
-56.31
-64.27
-70.97
-74.62
-73.63
-67.18
-55.57
-40.23
-23.36
-7.19
6.56
17.15
24.64
29.69
33.04
35.27
36.72
37.53
37.85
37.81
37.56
37.16
36.60
35.75
34.50
32.86
30.99
29.26
28.02
27.48
27.50
27.67
27.39
26.13
23.69
20.20
16.12
11.93
8.04
4.61
1.50
-1.56
-4.94
-8.91
-13.54
-18.60
-23.64
-28.12
-31.70
-34.38
-36.60
-39.07
-42.62
-47.80
-54.67
-62.61
-70.24
-75.66
-76.94
-72.68
-62.56
-47.61
-29.92
-12.05
3.85
16.54
25.84
32.29
36.69
39.71
41.72
42.93
43.47
43.56
43.38
43.04
42.45
41.42
39.79
37.56
34.98
32.50
30.63
29.69
29.67
30.21
30.72
30.59
29.35
26.89
23.43
19.40
15.32
11.63
8.55
5.98
3.61
0.97
-2.32
-6.39
-11.07
-15.99
-20.69
-24.88
-28.56
-31.97
-35.60
-39.96
-45.46
-52.24
-59.97
-67.68
-73.80
-76.44
-73.93
-65.46
-51.42
-33.46
-13.95
4.66
20.53
32.75
41.26
46.50
49.07
49.51
48.32
46.08
43.53
41.44
40.40
40.53
41.44
42.35
42.52
41.60
39.84
38.01
37.01
37.42
39.22
41.76
44.07
45.20
44.59
42.28
38.88
35.33
32.68
31.75
32.79
35.15
37.23
36.75
31.39
19.65
1.51
-21.41
-46.24
-69.84
-89.73
-104.74
-115.07
-121.75
-126.07
-128.94
-130.50
-130.23
-127.09
-119.96
-108.18
-91.85
-72.10
-50.75
-29.89
-11.27
4.08
15.92
24.59
30.64
34.58
36.85
37.83
37.99
37.84
37.79
37.97
38.22
38.16
37.44
35.98
34.09
32.28
31.15
30.98
31.63
32.54
32.92
32.14
29.91
26.46
22.36
18.27
14.64
11.56
8.67
5.48
1.57
-3.19
-8.54
-14.00
-19.04
-23.31
-26.79
-29.81
-32.97
-36.94
-42.23
-48.91
-56.32
-63.12
-67.45
-67.49
-62.08
-51.23
-36.19
-19.11
-2.40
12.00
23.03
30.54
35.08
37.47
38.45
38.60
38.31
37.87
37.49
37.26
37.14
36.96
36.43
35.34
33.72
31.84
30.10
28.89
28.27
27.96
27.45
26.26
24.15
21.24
17.86
14.37
11.01
7.77
4.52
1.12
-2.57
-6.63
-11.02
-15.64
-20.27
-24.61
-28.45
-31.78
-34.89
-38.37
-42.93
-49.07
-56.76
-65.22
-72.92
-77.86
-78.16
-72.66
-61.40
-45.71
-27.82
-10.17
5.30
17.57
26.59
32.86
37.10
39.88
41.61
42.58
43.09
43.38
43.60
43.73
43.52
42.73
41.19
39.00
36.43
33.92
31.88
30.52
29.83
29.47
28.93
27.63
25.17
21.49
16.93
12.14
7.75
4.18
1.33
-1.29
-4.31
-8.18
-12.93
-18.14
-23.21
-27.60
-31.06
-33.74
-36.01
-38.46
-41.68
-46.23
-52.40
-59.95
-67.89
-74.50
-77.64
-75.54
-67.42
-53.94
-37.03
-19.26
-2.95
10.46
20.60
27.90
33.14
36.92
39.59
41.33
42.27
42.64
42.71
42.67
42.57
42.26
41.45
39.96
37.81
35.27
32.88
31.18
30.46
30.66
31.26
31.53
30.77
28.60
25.10
20.74
16.17
11.95
8.36
5.38
2.71
-0.11
-3.45
-7.50
-12.19
-17.21
-22.12
-26.53
-30.24
-33.35
-36.25
-39.51
-43.76
-49.43
-56.54
-64.40
-71.66
-76.45
-76.94
-71.93
-61.36
-46.37
-29.03
-11.66
3.82
16.32
25.60
32.04
36.29
38.98
40.59
41.49
41.94
42.16
42.25
42.15
41.66
40.53
38.61
35.94
32.85
29.88
27.54
26.16
25.70
25.71
25.54
24.55
22.43
19.27
15.51
11.77
8.48
5.72
3.17
0.29
-3.39
-8.01
-13.32
-18.74
-23.62
-27.56
-30.48
-32.70
-34.83
-37.58
-41.58
-47.12
-53.96
-61.13
-67.10
-70.02
-68.33
-61.28
-49.34
-34.07
-17.69
-2.33
10.56
20.40
27.43
32.27
35.55
37.70
38.91
39.31
39.03
38.30
37.36
36.35
35.29
34.11
32.77
31.29
29.88
28.77
28.07
27.71
27.36
26.57
24.97
22.42
19.05
15.21
11.27
7.46
3.83
0.22
-3.55
-7.67
-12.18
-16.94
-21.65
-25.97
-29.66
-32.67
-35.28
-38.03
-41.58
-46.46
-52.80
-60.06
-67.04
-71.98
-73.07
-69.01
-59.52
-45.53
-28.92
-11.95
3.49
16.28
26.15
33.40
38.51
41.86
43.74
44.41
44.26
43.75
43.23
42.85
42.51
41.92
40.78
38.98
36.64
34.11
31.82
30.17
29.29
29.02
28.88
28.23
26.56
23.66
19.75
15.33
10.98
7.09
3.70
0.49
-2.94
-6.88
-11.39
-16.23
-21.02
-25.45
-29.42
-33.09
-36.79
-40.96
-45.99
-52.15
-59.37
-67.13
-74.34
-79.39
-80.55
-76.48
-66.79
-52.31
-34.93
-16.92
-0.34
13.57
24.43
32.50
38.30
42.30
44.82
46.19
46.72
46.75
46.53
46.13
45.48
44.45
43.00
41.17
39.10
36.99
35.04
33.43
32.25
31.47
30.84
29.98
28.44
25.91
22.40
18.23
13.96
10.09
6.89
4.20
1.52
-1.72
-5.95
-11.18
-17.02
-22.83
-27.99
-32.14
-35.32
-37.97
-40.74
-44.36
-49.37
-55.99
-63.82
-71.71
-77.89
-80.31
-77.37
-68.47
-54.36
-37.00
-18.85
-2.14
11.72
22.30
29.88
35.06
38.44
40.45
41.42
41.65
41.42
40.99
40.44
39.72
38.67
37.18
35.22
32.97
30.73
28.89
27.84
27.70
28.35
29.26
29.71
28.99
26.70
22.94
18.27
13.50
9.33
6.12
3.72
1.58
-0.96
-4.43
-8.95
-14.23
-19.71
-24.79
-29.11
-32.70
-35.99
-39.67
-44.45
-50.77
-58.45
-66.58
-73.56
-77.48
-76.60
-69.97
-57.83
-41.58
-23.36
-5.55
10.01
22.22
30.87
36.37
39.41
40.72
40.91
40.49
39.78
38.98
38.17
37.29
36.19
34.75
32.89
30.68
28.39
26.33
24.81
23.95
23.57
23.23
22.35
20.46
17.42
13.42
8.98
4.68
0.96
-2.07
-4.63
-7.13
-9.98
-13.46
-17.52
-21.91
-26.26
-30.22
-33.67
-36.77
-39.96
-43.84
-48.92
-55.36
-62.69
-69.67
-74.48
-75.24
-70.55
-60.17
-45.10
-27.42
-9.56
6.49
19.59
29.59
36.94
42.28
46.03
48.35
49.31
49.06
47.95
46.44
44.87
43.39
41.87
40.11
37.96
35.55
33.14
31.13
29.81
29.24
29.23
29.39
29.19
28.13
25.88
22.39
17.88
12.88
7.98
3.67
0.11
-2.91
-5.86
-9.23
-13.33
-18.10
-23.21
-28.15
-32.49
-36.04
-38.95
-41.67
-44.88
-49.32
-55.47
-63.22
-71.64
-78.88
-82.71
-81.08
-73.02
-58.98
-40.84
-21.28
-2.95
12.32
23.79
31.74
36.99
40.46
42.87
44.69
46.19
47.46
48.42
48.90
48.62
47.41
45.27
42.46
39.37
36.46
34.06
32.33
31.24
30.65
30.28
29.80
28.86
27.11
24.36
20.65
16.25
11.65
7.35
3.73
0.84
-1.63
-4.20
-7.46
-11.71
-16.86
-22.42
-27.69
-32.03
-35.18
-37.33
-39.11
-41.36
-44.88
-50.16
-57.16
-65.11
-72.58
-77.62
-78.28
-73.23
-62.29
-46.65
-28.50
-10.34
5.71
18.47
27.72
33.96
37.91
40.22
41.30
41.49
41.10
40.44
39.77
39.17
38.46
37.36
35.61
33.19
30.31
27.42
25.03
23.47
22.82
22.82
22.95
22.66
21.49
19.28
16.13
12.40
8.53
4.92
1.74
-1.05
-3.69
-6.51
-9.77
-13.54
-17.64
-21.75
-25.49
-28.64
-31.23
-33.59
-36.29
-39.92
-44.98
-51.53
-59.06
-66.39
-71.81
-73.49
-69.98
-60.86
-46.89
-29.89
-12.24
3.91
17.11
26.89
33.52
37.66
39.98
40.94
40.86
40.01
38.70
37.26
35.93
34.73
33.50
32.01
30.15
28.04
26.05
24.67
24.13
24.35
24.83
24.88
23.91
21.68
18.40
14.52
10.59
7.00
3.84
0.95
-2.02
-5.40
-9.44
-14.11
-19.15
-24.10
-28.49
-32.02
-34.74
-37.12
-39.89
-43.81
-49.35
-56.43
-64.21
-71.22
-75.51
-75.28
-69.37
-57.77
-41.68
-23.21
-4.80
11.46
24.32
33.44
39.23
42.46
43.95
44.38
44.24
43.85
43.41
42.94
42.33
41.39
39.93
37.86
35.24
32.32
29.53
27.31
25.99
25.65
26.06
26.61
26.63
25.52
23.02
19.35
15.12
11.01
7.55
4.82
2.49
-0.02
-3.25
-7.47
-12.55
-17.98
-23.12
-27.42
-30.62
-32.92
-34.91
-37.52
-41.74
-48.27
-57.24
-67.88
-78.50
-86.70
-90.06
-86.83
-76.60
-60.51
-40.98
-20.90
-2.85
11.62
22.15
29.29
34.01
37.20
39.42
40.91
41.77
42.08
42.01
41.70
41.24
40.53
39.43
37.82
35.77
33.61
31.84
30.86
30.84
31.45
31.98
31.61
29.73
26.25
21.62
16.60
11.97
8.18
5.22
2.67
-0.06
-3.50
-7.90
-13.20
-19.00
-24.68
-29.68
-33.61
-36.48
-38.71
-41.06
-44.38
-49.32
-55.98
-63.75
-71.31
-76.84
-78.39
-74.55
-64.83
-49.98
-31.86
-12.90
4.53
18.79
29.16
35.86
39.64
41.40
41.89
41.68
41.09
40.32
39.49
38.60
37.60
36.37
34.82
32.99
31.01
29.14
27.65
26.78
26.49
26.51
26.31
25.32
23.12
19.70
15.42
10.95
6.92
3.67
1.15
-1.09
-3.65
-7.01
-11.31
-16.26
-21.32
-25.88
-29.60
-32.52
-35.10
-38.07
-42.16
-47.83
-55.04
-63.02
-70.36
-75.17
-75.64
-70.52
-59.67
-44.18
-26.13
-7.98
8.11
20.81
29.75
35.36
38.46
39.93
40.43
40.35
39.85
39.01
37.88
36.52
35.06
33.55
32.04
30.56
29.20
28.09
27.32
26.87
26.53
25.95
24.77
22.74
19.89
16.50
12.91
9.42
6.07
2.72
-0.86
-4.86
-9.27
-13.88
-18.40
-22.55
-26.25
-29.61
-33.01
-36.94
-41.96
-48.43
-56.33
-64.93
-72.81
-77.96
-78.35
-72.62
-60.68
-43.91
-24.78
-6.08
9.96
22.25
30.84
36.54
40.32
42.86
44.47
45.23
45.23
44.70
43.90
42.98
41.86
40.32
38.17
35.47
32.59
30.08
28.42
27.76
27.85
28.11
27.80
26.36
23.58
19.70
15.27
10.92
7.07
3.77
0.67
-2.78
-7.00
-12.07
-17.67
-23.21
-28.15
-32.21
-35.48
-38.44
-41.71
-45.93
-51.59
-58.75
-66.93
-74.91
-80.83
-82.59
-78.61
-68.38
-52.83
-34.11
-14.88
2.56
16.77
27.40
34.81
39.72
42.79
44.56
45.47
45.90
46.21
46.53
46.82
46.79
46.13
44.64
42.30
39.39
36.31
33.58
31.56
30.34
29.65
28.92
27.52
25.00
21.34
16.94
12.46
8.46
5.18
2.39
-0.40
-3.73
-7.89
-12.76
-17.99
-23.09
-27.66
-31.55
-34.82
-37.77
-40.86
-44.67
-49.73
-56.28
-63.97
-71.57
-77.11
-78.39
-73.79
-62.97
-47.16
-28.73
-10.39
5.75
18.64
28.30
35.37
40.52
44.14
46.36
47.28
47.18
46.51
45.74
45.07
44.43
43.48
41.90
39.61
36.81
34.00
31.69
30.19
29.49
29.22
28.81
27.71
25.55
22.25
18.12
13.67
9.46
5.86
2.94
0.41
-2.22
-5.42
-9.45
-14.18
-19.23
-24.11
-28.43
-32.10
-35.33
-38.57
-42.40
-47.31
-53.57
-60.95
-68.63
-75.11
-78.49
-76.97
-69.58
-56.56
-39.54
-20.96
-3.38
11.39
22.62
30.51
35.77
39.13
41.02
41.68
41.29
40.18
38.78
37.45
36.31
35.23
33.99
32.37
30.41
28.42
26.81
25.93
25.87
26.32
26.68
26.32
24.78
21.98
18.28
14.22
10.33
6.83
3.57
0.19
-3.67
-8.10
-12.90
-17.62
-21.76
-25.08
-27.66
-29.98
-32.73
-36.64
-42.17
-49.30
-57.37
-65.05
-70.58
-72.14
-68.44
-59.19
-45.23
-28.42
-11.03
4.90
18.03
27.86
34.63
38.90
41.33
42.48
42.72
42.36
41.61
40.59
39.35
37.85
36.03
33.90
31.56
29.28
27.39
26.19
25.80
26.05
26.45
26.37
25.28
22.91
19.41
15.26
11.04
7.23
4.00
1.15
-1.72
-5.08
-9.19
-14.00
-19.17
-24.19
-28.62
-32.25
-35.20
-37.95
-41.17
-45.52
-51.40
-58.68
-66.41
-72.89
-76.02
-73.99
-65.96
-52.51
-35.52
-17.48
-0.76
13.13
23.75
31.43
36.85
40.61
43.08
44.48
45.12
45.39
45.66
46.09
46.56
46.66
45.97
44.29
41.79
38.96
36.43
34.68
33.91
33.93
34.34
34.57
34.13
32.58
29.67
25.29
19.58
12.83
5.49
-2.04
-9.47
-16.69
-23.60
-30.09
-35.85
-40.50
-43.76
-45.65
-46.62
-47.42
-48.95
-51.98
-56.85
-63.33
-70.42
-76.45
-79.40
-77.46
-69.67
-56.41
-39.37
-21.00
-3.72
10.74
21.74
29.48
34.67
38.05
40.20
41.49
42.19
42.50
42.58
42.48
42.13
41.38
40.13
38.35
36.23
34.01
32.00
30.44
29.43
28.87
28.49
27.89
26.69
24.63
21.68
18.06
14.19
10.50
7.27
4.49
1.85
-1.14
-4.89
-9.51
-14.76
-20.16
-25.16
-29.43
-32.99
-36.20
-39.65
-43.95
-49.55
-56.52
-64.43
-72.16
-78.06
-80.26
-77.18
-68.24
-54.09
-36.58
-18.20
-1.33
12.41
22.46
29.14
33.25
35.66
36.99
37.62
37.81
37.74
37.61
37.53
37.45
37.17
36.42
34.99
32.96
30.66
28.55
27.04
26.23
25.88
25.43
24.32
22.19
19.08
15.41
11.70
8.31
5.27
2.26
-1.17
-5.32
-10.17
-15.35
-20.32
-24.66
-28.18
-31.05
-33.71
-36.75
-40.71
-45.97
-52.49
-59.70
-66.31
-70.59
-70.73
-65.50
-54.80
-39.80
-22.60
-5.57
9.35
21.14
29.72
35.56
39.28
41.36
42.06
41.62
40.33
38.63
36.94
35.44
34.07
32.57
30.74
28.57
26.32
24.38
23.03
22.33
21.97
21.46
20.38
18.49
15.86
12.82
9.74
6.89
4.27
1.65
-1.34
-4.97
-9.34
-14.22
-19.23
-23.90
-27.93
-31.32
-34.31
-37.44
-41.33
-46.54
-53.26
-61.13
-69.03
-75.19
-77.60
-74.59
-65.52
-51.11
-33.33
-14.72
2.32
16.20
26.43
33.39
37.87
40.65
42.32
43.21
43.60
43.68
43.63
43.46
42.99
41.95
40.12
37.54
34.54
31.66
29.42
28.13
27.66
27.53
27.08
25.73
23.19
19.60
15.40
11.18
7.43
4.32
1.69
-0.94
-4.05
-7.96
-12.66
-17.81
-22.86
-27.31
-30.91
-33.79
-36.43
-39.48
-43.63
-49.30
-56.50
-64.55
-72.09
-77.25
-78.07
-73.21
-62.45
-46.97
-28.96
-11.00
4.82
17.40
26.69
33.30
38.00
41.35
43.61
44.92
45.44
45.44
45.18
44.77
44.14
43.07
41.39
39.11
36.49
33.97
31.97
30.75
30.21
29.98
29.47
28.17
25.81
22.40
18.29
13.93
9.75
5.99
2.62
-0.61
-4.02
-7.91
-12.40
-17.35
-22.40
-27.14
-31.21
-34.54
-37.42
-40.47
-44.39
-49.76
-56.64
-64.37
-71.49
-76.10
-76.29
-70.83
-59.65
-43.94
-25.82
-7.74
8.26
20.96
30.13
36.25
40.14
42.56
44.04
44.84
45.08
44.83
44.17
43.18
41.89
40.24
38.16
35.62
32.73
29.83
27.35
25.68
24.94
24.85
24.87
24.31
22.68
19.86
16.12
12.03
8.18
4.93
2.25
-0.22
-3.01
-6.55
-11.01
-16.20
-21.65
-26.84
-31.31
-34.89
-37.72
-40.27
-43.21
-47.25
-52.89
-60.11
-68.13
-75.34
-79.66
-79.08
-72.46
-59.96
-43.13
-24.42
-6.34
9.21
21.37
30.21
36.28
40.21
42.45
43.31
43.10
42.22
41.13
40.18
39.44
38.74
37.74
36.15
33.95
31.42
29.02
27.22
26.27
26.05
26.15
25.94
24.88
22.71
19.50
15.67
11.72
8.11
4.96
2.10
-0.87
-4.36
-8.60
-13.48
-18.62
-23.49
-27.71
-31.15
-34.08
-37.01
-40.58
-45.32
-51.45
-58.62
-65.81
-71.35
-73.31
-70.12
-61.17
-47.13
-29.88
-11.88
4.64
18.22
28.39
35.43
39.95
42.52
43.55
43.37
42.33
40.87
39.40
38.13
37.05
35.97
34.66
33.03
31.17
29.36
27.91
27.00
26.55
26.21
25.47
23.86
21.16
17.48
13.18
8.69
4.34
0.20
-3.85
-7.99
-12.35
-16.89
-21.49
-25.95
-30.09
-33.80
-37.14
-40.34
-43.88
-48.36
-54.20
-61.34
-68.88
-75.17
-78.11
-75.96
-67.91
-54.52
-37.54
-19.36
-2.24
12.24
23.49
31.69
37.43
41.34
43.88
45.32
45.82
45.59
44.87
43.88
42.75
41.45
39.81
37.71
35.22
32.66
30.48
29.11
28.71
29.01
29.43
29.26
27.93
25.23
21.38
16.90
12.37
8.21
4.55
1.20
-2.24
-6.16
-10.78
-16.02
-21.50
-26.70
-31.17
-34.70
-37.50
-40.14
-43.41
-48.04
-54.43
-62.27
-70.48
-77.27
-80.60
-78.75
-70.90
-57.52
-40.23
-21.33
-3.12
12.68
25.24
34.52
40.93
45.02
47.27
48.06
47.75
46.73
45.39
44.01
42.69
41.34
39.82
37.99
35.90
33.79
31.99
30.81
30.40
30.62
31.06
31.12
30.22
28.00
24.49
20.05
15.29
10.76
6.78
3.30
0.01
-3.53
-7.61
-12.31
-17.44
-22.63
-27.47
-31.65
-35.10
-38.05
-40.92
-44.34
-48.84
-54.69
-61.61
-68.63
-74.14
-76.27
-73.46
-65.00
-51.43
-34.44
-16.32
0.69
15.05
26.14
34.15
39.62
43.12
45.04
45.71
45.42
44.57
43.58
42.69
41.92
41.06
39.78
37.91
35.50
32.86
30.40
28.52
27.37
26.87
26.63
26.17
24.93
22.61
19.17
14.90
10.33
6.05
2.43
-0.46
-2.93
-5.49
-8.58
-12.42
-16.86
-21.55
-26.02
-30.01
-33.46
-36.62
-39.93
-43.89
-48.90
-55.09
-62.11
-69.00
-74.25
-76.12
-73.16
-64.77
-51.51
-35.04
-17.56
-1.22
12.50
22.97
30.30
35.02
37.72
38.96
39.19
38.80
38.11
37.33
36.52
35.67
34.73
33.64
32.43
31.09
29.71
28.35
27.09
25.99
24.98
23.91
22.53
20.65
18.22
15.34
12.24
9.03
5.69
1.99
-2.25
-7.06
-12.20
-17.26
-21.83
-25.69
-28.97
-32.04
-35.45
-39.76
-45.34
-52.20
-59.77
-66.82
-71.62
-72.36
-67.79
-57.72
-43.27
-26.53
-9.88
4.70
16.18
24.52
30.32
34.39
37.33
39.39
40.61
40.91
40.33
39.06
37.31
35.30
33.18
31.04
28.95
27.02
25.39
24.18
23.38
22.82
22.22
21.21
19.54
17.04
13.78
9.87
5.51
0.89
-3.88
-8.64
-13.28
-17.61
-21.51
-24.94
-28.03
-31.10
-34.65
-39.24
-45.25
-52.61
-60.54
-67.50
-71.54
-70.86
-64.48
-52.67
-36.98
-19.74
-3.30
10.58
21.15
28.57
33.53
36.87
39.19
40.81
41.81
42.14
41.73
40.58
38.79
36.52
34.06
31.66
29.60
28.07
27.09
26.55
26.22
25.72
24.69
22.90
20.27
16.93
13.09
9.00
4.82
0.61
-3.60
-7.75
-11.80
-15.67
-19.32
-22.81
-26.30
-29.99
-34.20
-39.22
-45.29
-52.31
-59.63
-65.91
-69.36
-68.27
-61.72
-50.00
-34.67
-18.00
-2.23
11.09
21.38
28.84
34.01
37.45
39.55
40.55
40.68
40.14
39.10
37.69
35.92
33.84
31.49
29.06
26.76
24.84
23.40
22.42
21.69
20.85
19.58
17.66
15.07
11.98
8.66
5.30
1.96
-1.52
-5.35
-9.69
-14.50
-19.54
-24.42
-28.75
-32.37
-35.39
-38.28
-41.66
-46.10
-51.78
-58.23
-64.26
-68.13
-68.11
-63.00
-52.70
-38.31
-21.83
-5.57
8.62
19.72
27.62
32.82
36.04
37.80
38.41
37.98
36.68
34.77
32.60
30.51
28.74
27.35
26.25
25.23
24.14
22.88
21.45
19.95
18.50
17.15
15.82
14.28
12.20
9.33
5.59
1.12
-3.74
-8.59
-13.18
-17.41
-21.35
-25.13
-28.86
-32.70
-36.89
-41.78
-47.60
-54.22
-60.81
-65.88
-67.65
-64.64
-56.32
-43.35
-27.40
-10.61
5.12
18.51
29.05
36.79
42.04
45.19
46.63
46.73
45.87
44.43
42.68
40.78
38.80
36.78
34.79
32.91
31.22
29.71
28.28
26.75
24.97
22.89
20.56
18.13
15.70
13.20
10.46
7.18
3.18
-1.55
-6.78
-12.12
-17.18
-21.71
-25.65
-29.11
-32.38
-35.79
-39.75
-44.67
-50.83
-58.08
-65.66
-72.08
-75.37
-73.76
-66.27
-53.22
-36.27
-17.83
-0.38
14.30
25.45
33.24
38.37
41.60
43.48
44.38
44.50
44.13
43.53
42.91
42.31
41.57
40.47
38.86
36.81
34.61
32.62
31.18
30.32
29.77
29.07
27.72
25.43
22.21
18.38
14.37
10.46
6.65
2.71
-1.71
-6.78
-12.39
-18.09
-23.39
-27.90
-31.57
-34.76
-37.99
-41.91
-46.99
-53.42
-60.90
-68.46
-74.60
-77.51
-75.55
-67.86
-54.80
-37.90
-19.49
-1.95
12.90
24.27
32.29
37.67
41.31
43.88
45.74
46.94
47.42
47.08
45.97
44.20
41.95
39.41
36.74
34.07
31.55
29.40
27.80
26.79
26.20
25.60
24.49
22.46
19.41
15.56
11.38
7.35
3.78
0.66
-2.30
-5.54
-9.42
-14.00
-18.99
-23.86
-28.07
-31.34
-33.80
-35.99
-38.66
-42.55
-48.05
-55.02
-62.61
-69.34
-73.34
-72.85
-66.79
-55.20
-39.37
-21.46
-3.88
11.42
23.39
31.86
37.31
40.46
42.00
42.40
42.04
41.11
39.76
38.06
36.01
33.62
30.98
28.30
25.84
23.91
22.63
21.95
21.58
21.09
20.16
18.59
16.48
14.01
11.46
8.97
6.49
3.84
0.78
-2.85
-7.04
-11.59
-16.20
-20.54
-24.42
-27.85
-31.09
-34.66
-39.12
-44.88
-51.84
-59.19
-65.42
-68.59
-66.99
-59.69
-47.02
-30.53
-12.59
4.41
18.60
29.11
36.00
39.91
41.72
42.21
41.97
41.36
40.61
39.85
39.11
38.34
37.41
36.17
34.57
32.70
30.80
29.16
27.99
27.35
26.99
26.48
25.30
23.08
19.77
15.68
11.34
7.28
3.77
0.76
-2.16
-5.47
-9.53
-14.39
-19.75
-25.14
-30.08
-34.33
-37.97
-41.40
-45.19
-49.97
-56.09
-63.35
-70.88
-77.08
-80.03
-78.04
-70.24
-57.04
-40.00
-21.46
-3.72
11.52
23.49
32.23
38.30
42.31
44.79
46.10
46.51
46.30
45.75
45.04
44.23
43.25
41.93
40.11
37.83
35.27
32.79
30.77
29.54
29.07
29.06
28.92
28.00
25.85
22.44
18.17
13.68
9.61
6.28
3.55
0.92
-2.20
-6.24
-11.19
-16.74
-22.29
-27.30
-31.45
-34.76
-37.56
-40.46
-44.11
-49.13
-55.76
-63.66
-71.69
-78.06
-80.69
-77.88
-68.94
-54.56
-36.66
-17.78
-0.30
14.20
25.14
32.81
37.94
41.26
43.34
44.54
45.12
45.28
45.18
44.83
44.14
42.94
41.10
38.64
35.82
33.08
30.81
29.33
28.63
28.44
28.25
27.56
25.99
23.41
19.99
16.08
12.11
8.44
5.22
2.34
-0.52
-3.74
-7.63
-12.23
-17.33
-22.46
-27.13
-30.96
-33.87
-36.18
-38.49
-41.57
-46.11
-52.40
-60.12
-68.22
-75.02
-78.54
-77.08
-69.81
-57.10
-40.49
-22.28
-4.81
10.09
21.58
29.67
34.98
38.29
40.20
41.12
41.26
40.78
39.91
38.84
37.67
36.34
34.71
32.65
30.23
27.78
25.72
24.42
23.99
24.15
24.36
24.00
22.64
20.19
16.94
13.38
9.99
6.98
4.24
1.37
-2.00
-6.12
-10.85
-15.81
-20.48
-24.45
-27.61
-30.16
-32.59
-35.51
-39.57
-45.12
-52.08
-59.67
-66.40
-70.38
-69.81
-63.66
-52.09
-36.49
-19.07
-2.16
12.47
23.92
32.10
37.49
40.71
42.32
42.80
42.50
41.75
40.77
39.66
38.36
36.73
34.70
32.33
29.90
27.76
26.26
25.51
25.41
25.57
25.51
24.74
22.92
20.01
16.23
12.04
7.91
4.20
0.97
-1.99
-5.12
-8.83
-13.28
-18.33
-23.55
-28.41
-32.52
-35.78
-38.47
-41.10
-44.35
-48.84
-54.83
-62.04
-69.46
-75.37
-77.79
-75.04
-66.41
-52.56
-35.34
-17.25
-0.58
13.17
23.57
30.99
36.15
39.68
41.95
43.17
43.51
43.29
42.89
42.58
42.37
42.04
41.24
39.69
37.42
34.75
32.15
30.06
28.71
27.99
27.53
26.77
25.24
22.71
19.27
15.33
11.39
7.84
4.80
2.04
-0.85
-4.30
-8.53
-13.43
-18.62
-23.58
-27.88
-31.29
-33.96
-36.30
-38.93
-42.55
-47.64
-54.30
-61.96
-69.43
-74.92
-76.57
-72.96
-63.68
-49.55
-32.48
-14.82
1.32
14.59
24.62
31.79
36.75
40.10
42.22
43.32
43.61
43.38
42.93
42.46
41.95
41.18
39.86
37.87
35.32
32.56
30.06
28.21
27.14
26.68
26.43
25.84
24.45
22.01
18.59
14.56
10.44
6.72
3.65
1.13
-1.21
-3.86
-7.16
-11.18
-15.74
-20.43
-24.87
-28.76
-32.05
-34.91
-37.70
-40.91
-45.07
-50.51
-57.22
-64.59
-71.34
-75.72
-75.89
-70.63
-59.78
-44.45
-26.80
-9.28
6.00
17.88
26.18
31.48
34.69
36.56
37.60
38.05
38.04
37.67
37.07
36.30
35.34
34.13
32.58
30.73
28.72
26.82
25.31
24.40
24.04
24.00
23.83
23.11
21.52
19.04
15.92
12.55
9.38
6.61
4.18
1.76
-1.12
-4.79
-9.25
-14.17
-18.99
-23.18
-26.49
-29.06
-31.37
-34.11
-37.93
-43.23
-49.89
-57.16
-63.59
-67.35
-66.69
-60.55
-49.04
-33.54
-16.29
0.35
14.56
25.48
33.14
38.14
41.20
42.96
43.87
44.33
44.63
44.93
45.10
44.77
43.41
40.68
36.60
31.67
26.68
22.42
19.36
17.52
16.55
15.89
14.96
13.40
11.06
8.05
4.65
1.21
-1.97
-4.77
-7.30
-9.86
-12.80
-16.42
-20.73
-25.47
-30.18
-34.40
-37.88
-40.70
-43.37
-46.61
-51.14
-57.29
-64.73
-72.29
-78.15
-80.25
-77.05
-67.99
-53.83
-36.38
-18.01
-0.88
13.55
24.68
32.67
38.00
41.27
42.99
43.58
43.46
43.03
42.60
42.26
41.90
41.24
39.98
37.98
35.44
32.75
30.47
29.01
28.55
28.85
29.40
29.54
28.66
26.43
22.88
18.42
13.64
9.11
5.08
1.48
-2.06
-6.00
-10.63
-15.92
-21.49
-26.82
-31.42
-35.07
-37.90
-40.36
-43.09
-46.78
-51.92
-58.57
-66.17
-73.35
-78.23
-78.82
-73.75
-62.78
-47.08
-28.80
-10.45
5.83
18.86
28.41
34.94
39.18
41.78
43.25
43.91
44.04
43.90
43.64
43.33
42.86
42.06
40.74
38.88
36.58
34.13
31.88
30.13
29.01
28.34
27.79
26.87
25.19
22.58
19.09
15.05
10.87
6.94
3.48
0.47
-2.37
-5.38
-8.91
-13.08
-17.74
-22.52
-27.02
-30.92
-34.19
-37.12
-40.18
-43.95
-48.93
-55.33
-62.90
-70.74
-77.27
-80.55
-78.85
-71.25
-58.15
-41.20
-22.85
-5.48
9.23
20.65
28.95
34.78
38.77
41.30
42.63
42.97
42.58
41.77
40.79
39.69
38.40
36.79
34.73
32.32
29.79
27.50
25.78
24.75
24.26
23.86
23.00
21.24
18.43
14.81
10.91
7.26
4.11
1.38
-1.36
-4.59
-8.57
-13.18
-17.97
-22.34
-25.84
-28.37
-30.26
-32.11
-34.65
-38.52
-44.03
-50.99
-58.62
-65.44
-69.63
-69.40
-63.68
-52.52
-37.25
-20.04
-3.28
11.14
22.25
30.05
35.17
38.37
40.23
41.08
41.08
40.38
39.24
37.96
36.72
35.53
34.22
32.58
30.59
28.43
26.52
25.26
24.81
24.97
25.23
24.97
23.71
21.32
18.02
14.25
10.50
7.01
3.79
0.57
-2.97
-7.04
-11.66
-16.58
-21.42
-25.81
-29.53
-32.63
-35.47
-38.65
-42.89
-48.76
-56.38
-65.21
-73.91
-80.51
-82.94
-79.64
-70.18
-55.49
-37.60
-19.05
-2.10
11.85
22.35
29.76
34.80
38.22
40.60
42.29
43.50
44.35
44.84
44.89
44.32
43.01
40.91
38.17
35.14
32.30
30.13
28.93
28.71
29.15
29.68
29.65
28.59
26.33
23.07
19.28
15.48
11.99
8.89
5.96
2.81
-0.95
-5.52
-10.84
-16.58
-22.27
-27.45
-31.89
-35.64
-39.12
-42.97
-47.86
-54.25
-62.05
-70.46
-77.97
-82.67
-82.73
-77.04
-65.63
-49.73
-31.47
-13.20
3.15
16.49
26.57
33.78
38.73
42.04
44.19
45.57
46.50
47.22
47.85
48.33
48.50
48.14
47.16
45.65
43.81
41.91
40.17
38.72
37.52
36.46
35.30
33.79
31.69
28.83
25.18
20.95
16.46
12.12
8.24
4.92
2.00
-0.89
-4.17
-8.07
-12.57
-17.38
-22.05
-26.18
-29.64
-32.64
-35.67
-39.39
-44.38
-50.99
-59.08
-67.90
-76.00
-81.50
-82.51
-77.74
-67.05
-51.57
-33.44
-15.13
1.27
14.59
24.59
31.70
36.64
39.98
42.04
43.03
43.12
42.53
41.58
40.52
39.49
38.47
37.31
35.83
34.00
32.00
30.18
28.94
28.50
28.72
29.13
29.07
27.93
25.42
21.72
17.31
12.88
8.91
5.63
2.86
0.17
-2.88
-6.55
-10.75
-15.17
-19.32
-22.84
-25.63
-27.93
-30.25
-33.22
-37.43
-43.23
-50.51
-58.55
-65.96
-70.94
-71.67
-67.00
-56.82
-42.28
-25.42
-8.56
6.36
18.21
26.77
32.44
35.89
37.81
38.68
38.86
38.61
38.18
37.73
37.35
36.96
36.37
35.32
33.68
31.57
29.35
27.53
26.54
26.45
26.88
27.11
26.39
24.26
20.75
16.36
11.79
7.68
4.26
1.38
-1.38
-4.47
-8.16
-12.41
-16.93
-21.31
-25.19
-28.47
-31.32
-34.15
-37.56
-42.11
-48.18
-55.69
-63.91
-71.40
-76.24
-76.53
-71.06
-59.83
-44.19
-26.38
-8.93
6.24
18.12
26.67
32.50
36.32
38.77
40.25
41.01
41.29
41.31
41.23
41.11
40.84
40.22
39.11
37.48
35.55
33.69
32.27
31.54
31.45
31.68
31.74
31.08
29.38
26.53
22.74
18.45
14.17
10.32
7.12
4.44
1.89
-1.01
-4.71
-9.34
-14.66
-20.17
-25.28
-29.54
-32.84
-35.35
-37.58
-40.18
-43.87
-49.08
-55.86
-63.53
-70.72
-75.55
-76.12
-71.20
-60.63
-45.57
-28.09
-10.62
4.86
17.14
25.98
31.82
35.41
37.48
38.58
39.07
39.13
38.91
38.57
38.17
37.71
37.09
36.13
34.74
33.00
31.13
29.52
28.51
28.25
28.62
29.19
29.39
28.74
26.99
24.19
20.66
16.82
12.99
9.32
5.77
2.22
-1.49
-5.41
-9.59
-13.93
-18.33
-22.59
-26.50
-29.84
-32.59
-34.95
-37.34
-40.46
-44.91
-50.97
-58.30
-65.82
-71.81
-74.35
-71.93
-63.96
-51.10
-35.03
-18.00
-2.14
11.07
21.03
27.92
32.34
35.01
36.49
37.20
37.37
37.16
36.71
36.11
35.39
34.53
33.44
32.08
30.48
28.76
27.09
25.71
24.75
24.19
23.87
23.40
22.37
20.44
17.51
13.84
9.95
6.38
3.47
1.17
-0.96
-3.49
-6.82
-10.99
-15.67
-20.32
-24.41
-27.69
-30.24
-32.50
-35.04
-38.47
-43.22
-49.32
-56.28
-62.96
-67.84
-69.30
-66.13
-57.89
-45.21
-29.55
-12.91
2.76
15.96
25.92
32.62
36.55
38.48
39.17
39.14
38.71
37.93
36.72
35.07
33.03
30.76
28.50
26.43
24.70
23.39
22.55
22.20
22.31
22.72
23.12
23.04
22.01
19.75
16.30
12.09
7.77
3.93
0.85
-1.64
-4.08
-7.05
-10.98
-15.79
-21.00
-25.95
-30.07
-33.19
-35.54
-37.72
-40.47
-44.46
-50.06
-57.15
-64.99
-72.13
-76.70
-76.83
-71.31
-60.08
-44.42
-26.55
-8.92
6.47
18.57
27.22
32.91
36.28
37.98
38.58
38.56
38.39
38.38
38.58
38.79
38.63
37.85
36.41
34.57
32.72
31.22
30.25
29.77
29.63
29.59
29.36
28.67
27.22
24.81
21.43
17.33
12.97
8.86
5.36
2.46
-0.17
-3.08
-6.78
-11.47
-16.97
-22.75
-28.18
-32.75
-36.22
-38.78
-40.95
-43.52
-47.30
-52.86
-60.21
-68.57
-76.34
-81.42
-81.82
-76.31
-64.91
-48.95
-30.67
-12.52
3.52
16.36
25.81
32.27
36.42
38.94
40.37
41.12
41.46
41.60
41.59
41.37
40.79
39.70
38.00
35.74
33.16
30.59
28.44
27.03
26.46
26.56
26.90
26.89
26.00
23.95
20.78
16.90
12.85
9.18
6.18
3.82
1.68
-0.82
-4.25
-8.84
-14.36
-20.26
-25.82
-30.46
-34.03
-36.78
-39.30
-42.31
-46.44
-52.06
-59.13
-67.02
-74.48
-79.70
-80.82
-76.41
-66.14
-50.97
-32.95
-14.60
1.92
15.24
25.03
31.74
36.14
38.96
40.74
41.76
42.25
42.35
42.21
41.86
41.27
40.30
38.91
37.15
35.26
33.61
32.51
32.13
32.36
32.84
33.05
32.55
30.99
28.34
24.77
20.67
16.49
12.61
9.24
6.25
3.35
0.10
-3.83
-8.51
-13.72
-19.06
-24.07
-28.49
-32.33
-35.88
-39.63
-44.12
-49.77
-56.61
-64.22
-71.46
-76.72
-78.21
-74.59
-65.42
-51.48
-34.60
-17.05
-0.91
12.51
22.80
30.26
35.46
38.96
41.08
42.07
42.17
41.70
41.02
40.32
39.64
38.78
37.53
35.76
33.59
31.36
29.53
28.48
28.28
28.70
29.21
29.18
28.10
25.78
22.41
18.45
14.45
10.75
7.42
4.22
0.73
-3.40
-8.31
-13.80
-19.43
-24.64
-29.06
-32.61
-35.57
-38.47
-42.02
-46.78
-52.98
-60.25
-67.49
-73.01
-74.93
-71.68
-62.69
-48.66
-31.41
-13.34
3.32
17.10
27.52
34.92
40.05
43.58
45.97
47.39
47.91
47.58
46.55
44.97
42.95
40.54
37.73
34.56
31.19
27.94
25.23
23.37
22.49
22.39
22.61
22.61
21.92
20.34
17.92
14.94
11.81
8.85
6.22
3.81
1.27
-1.86
-5.87
-10.81
-16.33
-21.86
-26.82
-30.90
-34.15
-36.96
-39.90
-43.56
-48.42
-54.79
-62.53
-70.87
-78.31
-82.85
-82.51
-76.11
-63.83
-47.25
-28.86
-11.19
3.92
15.74
24.46
30.76
35.34
38.63
40.90
42.32
43.16
43.69
44.15
44.48
44.46
43.75
42.13
39.66
36.74
33.95
31.81
30.59
30.21
30.27
30.18
29.34
27.32
24.04
19.83
15.33
11.28
8.21
6.21
4.87
3.39
1.01
-2.71
-7.69
-13.39
-19.11
-24.27
-28.65
-32.39
-35.88
-39.58
-44.01
-49.52
-56.28
-63.98
-71.64
-77.60
-79.86
-76.75
-67.58
-53.09
-35.20
-16.53
0.59
14.64
25.16
32.55
37.48
40.65
42.48
43.29
43.33
42.87
42.21
41.48
40.65
39.55
37.96
35.83
33.32
30.82
28.79
27.60
27.30
27.66
28.14
28.12
27.10
24.82
21.41
17.29
13.07
9.28
6.18
3.63
1.18
-1.74
-5.50
-10.11
-15.19
-20.21
-24.73
-28.50
-31.63
-34.43
-37.41
-41.07
-45.92
-52.19
-59.65
-67.35
-73.66
-76.60
-74.45
-66.47
-53.22
-36.47
-18.65
-2.09
11.65
21.97
29.07
33.57
36.18
37.47
37.86
37.66
37.10
36.36
35.42
34.20
32.59
30.60
28.43
26.45
25.03
24.43
24.62
25.33
26.11
26.47
26.00
24.47
21.91
18.56
14.81
11.09
7.69
4.62
1.63
-1.72
-5.75
-10.53
-15.71
-20.76
-25.14
-28.61
-31.32
-33.80
-36.81
-41.01
-46.77
-53.89
-61.49
-68.07
-71.79
-71.02
-64.87
-53.56
-38.45
-21.61
-5.15
9.29
20.95
29.75
36.10
40.47
43.21
44.58
44.79
44.17
43.07
41.84
40.63
39.41
38.05
36.44
34.64
32.90
31.49
30.64
30.37
30.47
30.55
30.18
28.98
26.76
23.56
19.63
15.36
11.21
7.47
4.17
1.02
-2.43
-6.58
-11.58
-17.15
-22.75
-27.74
-31.73
-34.66
-36.94
-39.24
-42.32
-46.87
-53.18
-61.02
-69.44
-76.81
-81.11
-80.53
-74.03
-61.81
-45.33
-26.90
-8.97
6.50
18.56
27.14
32.86
36.56
39.00
40.68
41.92
42.84
43.52
43.93
43.96
43.45
42.25
40.31
37.78
35.05
32.58
30.80
29.90
29.75
29.99
30.14
29.71
28.36
25.98
22.65
18.66
14.40
10.27
6.56
3.34
0.44
-2.52
-5.93
-10.03
-14.80
-19.93
-24.98
-29.53
-33.40
-36.74
-40.05
-43.99
-49.21
-55.97
-63.91
-71.89
-78.12
-80.63
-77.80
-69.11
-55.26
-38.10
-19.98
-3.10
11.10
22.09
30.06
35.57
39.21
41.47
42.67
43.11
43.00
42.49
41.65
40.46
38.88
36.94
34.80
32.64
30.76
29.39
28.66
28.57
28.90
29.24
29.04
27.82
25.30
21.56
17.05
12.39
8.15
4.57
1.55
-1.35
-4.59
-8.52
-13.14
-18.12
-23.01
-27.36
-30.96
-33.90
-36.58
-39.54
-43.42
-48.64
-55.22
-62.54
-69.25
-73.54
-73.60
-68.25
-57.49
-42.50
-25.38
-8.36
6.72
18.87
27.90
34.18
38.22
40.51
41.48
41.46
40.80
39.77
38.55
37.19
35.61
33.73
31.53
29.16
26.86
25.00
23.88
23.65
24.17
24.94
25.31
24.64
22.57
19.18
14.97
10.63
6.75
3.56
0.83
-1.96
-5.33
-9.54
-14.47
-19.63
-24.46
-28.54
-31.83
-34.64
-37.53
-41.13
-45.98
-52.34
-59.96
-67.96
-74.78
-78.44
-77.12
-69.84
-56.94
-40.08
-21.78
-4.58
9.75
20.53
28.06
33.18
36.76
39.36
41.27
42.60
43.38
43.68
43.55
42.99
41.97
40.46
38.50
36.21
33.83
31.68
30.06
29.18
29.04
29.35
29.61
29.17
27.54
24.55
20.46
15.88
11.50
7.78
4.77
2.11
-0.78
-4.43
-9.07
-14.55
-20.43
-26.16
-31.27
-35.49
-38.88
-41.74
-44.67
-48.42
-53.68
-60.74
-69.17
-77.61
-83.93
-85.80
-81.51
-70.66
-54.43
-35.15
-15.62
1.91
16.17
26.96
34.79
40.33
44.13
46.51
47.71
48.02
47.77
47.27
46.68
45.92
44.87
43.37
41.42
39.18
36.90
34.90
33.40
32.51
32.16
32.07
31.78
30.78
28.65
25.24
20.76
15.76
10.87
6.58
3.00
-0.12
-3.34
-7.13
-11.73
-16.96
-22.40
-27.56
-32.10
-35.99
-39.48
-43.02
-47.10
-52.19
-58.54
-65.97
-73.69
-80.21
-83.59
-81.99
-74.37
-60.98
-43.41
-24.09
-5.54
10.38
22.78
31.68
37.62
41.24
43.12
43.69
43.34
42.48
41.45
40.43
39.40
38.20
36.63
34.65
32.44
30.36
28.82
28.06
28.02
28.35
28.49
27.87
26.15
23.32
19.62
15.51
11.41
7.64
4.25
1.09
-2.17
-5.84
-10.10
-14.85
-19.80
-24.53
-28.71
-32.25
-35.40
-38.71
-42.90
-48.51
-55.61
-63.52
-70.75
-75.25
-75.04
-68.95
-57.10
-40.96
-22.84
-5.17
10.31
22.77
32.21
39.03
43.71
46.56
47.88
48.01
47.40
46.47
45.48
44.43
43.14
41.41
39.18
36.59
33.99
31.73
30.14
29.35
29.28
29.57
29.73
29.20
27.54
24.54
20.40
15.60
10.77
6.43
2.81
-0.29
-3.37
-6.95
-11.38
-16.58
-22.12
-27.41
-31.93
-35.54
-38.45
-41.26
-44.72
-49.58
-56.25
-64.61
-73.73
-81.89
-86.90
-86.73
-80.18
-67.45
-50.08
-30.55
-11.41
5.38
18.86
28.94
36.13
41.07
44.36
46.47
47.72
48.41
48.72
48.70
48.28
47.31
45.67
43.33
40.47
37.40
34.53
32.28
30.93
30.48
30.60
30.72
30.17
28.48
25.49
21.44
16.88
12.40
8.37
4.81
1.39
-2.36
-6.81
-12.05
-17.80
-23.56
-28.82
-33.26
-36.80
-39.66
-42.29
-45.30
-49.35
-54.97
-62.22
-70.50
-78.33
-83.62
-84.20
-78.61
-66.68
-49.69
-29.95
-10.14
7.52
21.74
32.24
39.40
43.92
46.51
47.72
47.95
47.51
46.62
45.46
44.13
42.63
40.89
38.87
36.59
34.20
31.95
30.15
28.98
28.39
28.06
27.47
26.10
23.59
19.98
15.64
11.15
7.03
3.55
0.63
-2.10
-5.11
-8.75
-13.07
-17.85
-22.66
-27.07
-30.81
-33.89
-36.59
-39.42
-42.99
-47.81
-54.04
-61.24
-68.30
-73.48
-74.89
-71.09
-61.59
-47.20
-29.79
-11.75
4.71
18.15
28.05
34.66
38.63
40.64
41.24
40.90
40.00
38.92
37.92
37.10
36.33
35.37
33.97
32.12
30.03
28.16
26.89
26.41
26.54
26.81
26.63
25.52
23.30
20.12
16.39
12.57
9.02
5.82
2.75
-0.56
-4.50
-9.24
-14.65
-20.30
-25.63
-30.21
-33.88
-36.93
-40.01
-43.89
-49.22
-56.17
-64.19
-71.90
-77.35
-78.47
-73.84
-63.13
-47.38
-28.69
-9.61
7.57
21.40
31.46
38.08
42.01
44.01
44.67
44.45
43.72
42.79
41.94
41.25
40.65
39.87
38.64
36.83
34.56
32.21
30.22
28.93
28.36
28.20
27.92
26.95
24.95
21.89
18.10
14.08
10.32
7.09
4.35
1.76
-1.22
-5.07
-10.00
-15.88
-22.16
-28.12
-33.16
-37.03
-39.92
-42.48
-45.53
-49.82
-55.81
-63.36
-71.62
-79.03
-83.49
-83.04
-76.41
-63.63
-46.13
-26.43
-7.26
9.19
21.83
30.68
36.54
40.38
42.97
44.72
45.80
46.30
46.37
46.17
45.82
45.31
44.43
42.99
40.89
38.30
35.68
33.57
32.41
32.26
32.77
33.25
33.00
31.52
28.70
24.82
20.45
16.14
12.30
9.07
6.26
3.40
-0.01
-4.39
-9.84
-16.11
-22.66
-28.86
-34.18
-38.46
-41.85
-44.87
-48.20
-52.56
-58.42
-65.73
-73.68
-80.67
-84.62
-83.52
-76.24
-62.98
-45.32
-25.72
-6.78
9.51
22.18
31.16
36.99
40.38
41.98
42.32
41.86
41.02
40.21
39.67
39.45
39.33
38.96
37.97
36.23
33.93
31.50
29.49
28.32
28.00
28.20
28.31
27.72
26.03
23.18
19.46
15.30
11.14
7.27
3.76
0.48
-2.82
-6.40
-10.45
-14.93
-19.62
-24.15
-28.14
-31.36
-33.90
-36.20
-38.93
-42.84
-48.42
-55.64
-63.68
-71.00
-75.59
-75.53
-69.66
-58.05
-42.04
-23.87
-5.99
9.69
22.08
31.02
36.95
40.52
42.37
43.04
42.96
42.50
41.89
41.20
40.34
39.13
37.46
35.32
32.93
30.60
28.69
27.45
26.95
27.06
27.42
27.57
27.02
25.44
22.74
19.11
15.00
10.88
7.12
3.81
0.71
-2.59
-6.48
-11.15
-16.51
-22.11
-27.46
-32.12
-35.95
-39.10
-42.07
-45.53
-50.20
-56.49
-64.24
-72.52
-79.53
-83.05
-81.13
-72.79
-58.50
-40.18
-20.52
-2.20
12.91
24.10
31.65
36.39
39.23
40.83
41.64
41.97
42.08
42.20
42.40
42.58
42.49
41.84
40.46
38.42
36.02
33.71
31.92
30.87
30.51
30.53
30.39
29.56
27.66
24.60
20.65
16.33
12.16
8.49
5.29
2.22
-1.24
-5.48
-10.66
-16.51
-22.48
-27.94
-32.38
-35.74
-38.31
-40.74
-43.78
-48.06
-53.93
-61.17
-68.97
-75.84
-79.95
-79.50
-73.36
-61.49
-45.19
-26.71
-8.54
7.25
19.62
28.51
34.53
38.46
40.95
42.34
42.87
42.75
42.24
41.61
41.03
40.50
39.87
38.96
37.66
36.05
34.35
32.84
31.74
31.07
30.64
30.08
28.95
26.93
23.92
20.12
15.90
11.75
8.03
4.87
2.04
-0.86
-4.34
-8.67
-13.84
-19.46
-24.95
-29.80
-33.73
-36.83
-39.51
-42.29
-45.69
-50.11
-55.76
-62.47
-69.53
-75.63
-78.98
-77.81
-70.98
-58.57
-41.94
-23.42
-5.49
9.91
21.88
30.48
36.30
40.05
42.20
43.01
42.68
41.53
39.99
38.41
36.97
35.58
34.02
32.13
29.96
27.84
26.19
25.36
25.38
25.91
26.32
25.95
24.36
21.51
17.77
13.72
9.92
6.65
3.81
1.03
-2.17
-6.08
-10.69
-15.67
-20.56
-24.92
-28.54
-31.49
-34.08
-36.86
-40.41
-45.27
-51.60
-58.98
-66.20
-71.45
-72.74
-68.55
-58.49
-43.52
-25.69
-7.49
8.91
22.17
31.89
38.36
42.18
43.99
44.34
43.71
42.56
41.27
40.05
38.96
37.90
36.67
35.18
33.45
31.64
29.99
28.76
28.10
27.94
28.03
27.85
26.87
24.74
21.41
17.26
12.92
9.01
5.84
3.30
0.88
-2.04
-5.84
-10.54
-15.77
-20.95
-25.62
-29.59
-33.00
-36.24
-39.81
-44.25
-50.01
-57.26
-65.66
-74.19
-81.10
-84.28
-81.90
-73.17
-58.68
-40.42
-21.08
-3.22
11.50
22.56
30.38
35.82
39.67
42.38
44.16
45.12
45.42
45.32
44.98
44.40
43.38
41.70
39.24
36.16
32.89
30.02
28.07
27.31
27.57
28.33
28.87
28.49
26.78
23.73
19.67
15.21
10.88
7.02
3.59
0.28
-3.38
-7.69
-12.69
-18.10
-23.44
-28.19
-32.06
-35.01
-37.35
-39.62
-42.46
-46.50
-52.14
-59.33
-67.30
-74.57
-79.13
-78.99
-72.91
-60.90
-44.35
-25.61
-7.29
8.55
20.85
29.58
35.38
39.10
41.43
42.71
43.17
42.94
42.25
41.37
40.48
39.64
38.72
37.51
35.85
33.83
31.73
29.97
28.89
28.55
28.70
28.85
28.43
27.03
24.51
21.04
17.04
12.99
9.28
6.09
3.28
0.54
-2.55
-6.30
-10.77
-15.71
-20.67
-25.20
-29.03
-32.22
-35.16
-38.41
-42.61
-48.21
-55.29
-63.31
-71.08
-76.81
-78.62
-75.02
-65.62
-51.25
-33.82
-15.71
0.89
14.53
24.67
31.48
35.62
37.79
38.66
38.76
38.43
37.89
37.20
36.32
35.14
33.64
31.84
29.90
28.09
26.67
25.85
25.71
26.07
26.53
26.56
25.62
23.46
20.15
16.12
11.95
8.12
4.77
1.72
-1.41
-5.00
-9.17
-13.79
-18.52
-22.95
-26.81
-30.05
-32.87
-35.73
-39.20
-43.84
-49.87
-56.95
-64.01
-69.41
-71.27
-68.13
-59.48
-46.04
-29.64
-12.57
3.05
15.87
25.44
32.09
36.47
39.21
40.75
41.36
41.25
40.70
39.96
39.19
38.37
37.31
35.84
33.91
31.71
29.64
28.10
27.31
27.23
27.45
27.45
26.72
24.99
22.25
18.76
14.94
11.14
7.64
4.47
1.49
-1.61
-5.10
-9.16
-13.75
-18.65
-23.49
-27.92
-31.81
-35.27
-38.74
-42.82
-48.12
-54.94
-63.00
-71.22
-77.87
-80.98
-78.92
-71.04
-57.91
-41.25
-23.32
-6.35
8.14
19.50
27.85
33.72
37.73
40.33
41.84
42.50
42.58
42.42
42.29
42.28
42.26
41.89
40.90
39.21
37.05
34.90
33.20
32.18
31.73
31.41
30.69
29.15
26.59
23.12
19.03
14.69
10.44
6.49
2.88
-0.51
-3.94
-7.70
-11.97
-16.74
-21.78
-26.70
-31.10
-34.74
-37.71
-40.47
-43.80
-48.49
-54.98
-62.96
-71.18
-77.68
-80.28
-77.37
-68.48
-54.51
-37.43
-19.68
-3.41
10.06
20.29
27.58
32.59
36.00
38.32
39.86
40.81
41.30
41.45
41.29
40.81
39.93
38.54
36.60
34.26
31.86
29.83
28.55
28.19
28.56
29.21
29.50
28.87
26.99
23.90
19.96
15.71
11.65
8.00
4.66
1.25
-2.65
-7.26
-12.46
-17.83
-22.85
-27.11
-30.53
-33.32
-35.90
-38.79
-42.52
-47.48
-53.78
-61.08
-68.35
-73.95
-75.97
-72.87
-64.09
-50.31
-33.40
-15.73
0.49
13.83
23.81
30.74
35.33
38.28
40.13
41.18
41.60
41.51
41.00
40.16
39.04
37.71
36.19
34.50
32.77
31.13
29.78
28.84
28.27
27.82
27.09
25.67
23.35
20.19
16.53
12.84
9.50
6.56
3.79
0.74
-3.00
-7.64
-13.03
-18.73
-24.12
-28.72
-32.33
-35.17
-37.85
-41.16
-45.81
-52.14
-59.80
-67.70
-74.10
-77.06
-74.95
-67.07
-53.96
-37.26
-19.26
-2.27
12.08
23.05
30.79
35.94
39.25
41.30
42.46
42.95
42.96
42.68
42.25
41.73
41.02
39.97
38.48
36.57
34.48
32.61
31.34
30.87
31.07
31.46
31.41
30.35
28.02
24.52
20.32
15.96
11.94
8.50
5.55
2.78
-0.30
-4.09
-8.76
-14.14
-19.82
-25.22
-29.92
-33.78
-36.99
-40.03
-43.54
-48.12
-54.11
-61.48
-69.51
-76.86
-81.62
-81.85
-76.22
-64.59
-48.23
-29.45
-10.86
5.38
18.18
27.45
33.82
38.05
40.80
42.48
43.41
43.89
44.24
44.62
45.00
45.10
44.59
43.29
41.29
38.95
36.70
34.95
33.87
33.43
33.42
33.50
33.29
32.41
30.60
27.76
23.99
19.63
15.08
10.72
6.73
3.08
-0.52
-4.39
-8.74
-13.56
-18.58
-23.39
-27.66
-31.27
-34.38
-37.39
-40.76
-44.92
-50.19
-56.69
-64.23
-72.08
-78.88
-82.76
-81.86
-74.96
-62.07
-44.68
-25.26
-6.50
9.54
21.92
30.76
36.82
40.93
43.63
45.15
45.57
45.03
43.82
42.33
40.88
39.57
38.37
37.09
35.61
33.95
32.24
30.71
29.56
28.84
28.40
27.90
26.95
25.25
22.70
19.41
15.68
11.89
8.36
5.23
2.46
-0.16
-2.93
-6.12
-9.92
-14.34
-19.18
-24.10
-28.64
-32.47
-35.48
-37.96
-40.52
-43.89
-48.68
-55.06
-62.59
-70.10
-75.91
-78.21
-75.55
-67.39
-54.29
-37.81
-20.08
-3.19
11.36
22.82
31.23
37.00
40.65
42.61
43.22
42.83
41.79
40.51
39.30
38.25
37.31
36.27
34.92
33.26
31.48
29.91
28.92
28.70
29.16
29.86
30.21
29.66
27.92
25.07
21.57
17.99
14.76
12.02
9.54
6.90
3.74
-0.03
-4.14
-8.14
-11.57
-14.16
-15.90
-17.06
-18.04
-19.31
-21.35
-24.52
-28.90
-34.04
-38.86
-41.74
-40.92
-35.00
-23.51
-7.10
12.70
33.91
54.68
73.59
89.70
102.32
110.91
114.97
114.23
109.01
100.18
89.16
77.61
66.92
57.97
50.97
45.58
41.19
37.20
33.24
29.17
25.09
21.02
16.92
12.59
7.84
2.56
-3.17
-9.12
-15.02
-20.66
-25.98
-31.00
-35.90
-40.94
-46.43
-52.67
-59.87
-67.98
-76.69
-85.46
-93.71
-100.99
-107.11
-112.20
-116.58
-120.68
-124.84
-129.28
-133.91
-138.25
-141.35
-141.88
-138.34
-129.52
-114.90
-94.99
-71.29
-45.94
-21.23
1.06
19.88
34.97
46.58
55.16
61.09
64.65
66.07
65.65
63.81
61.03
57.77
54.39
51.12
48.09
45.36
42.97
40.92
39.15
37.55
35.93
34.07
31.70
28.61
24.65
19.85
14.40
8.72
3.28
-1.56
-5.73
-9.52
-13.49
-18.14
-23.70
-29.95
-36.29
-41.99
-46.45
-49.46
-51.16
-52.02
-52.64
-53.62
-55.42
-58.05
-60.89
-62.58
-61.28
-55.20
-43.40
-26.33
-5.88
15.15
33.95
48.52
58.21
63.48
65.49
65.39
64.05
61.96
59.41
56.66
53.99
51.58
49.39
47.16
44.54
41.31
37.60
33.89
30.86
29.10
28.80
29.65
30.89
31.58
30.88
28.40
24.20
18.80
12.91
7.25
2.32
-1.74
-5.08
-8.14
-11.42
-15.38
-20.21
-25.75
-31.49
-36.80
-41.10
-44.21
-46.45
-48.61
-51.70
-56.48
-63.15
-71.01
-78.45
-83.32
-83.50
-77.61
-65.54
-48.59
-29.09
-9.67
7.51
21.25
31.38
38.37
42.89
45.44
46.30
45.73
44.12
42.01
39.96
38.32
37.07
35.94
34.62
33.01
31.30
29.84
28.95
28.65
28.60
28.25
27.04
24.67
21.22
17.13
12.97
9.22
6.04
3.21
0.22
-3.47
-8.20
-13.91
-20.14
-26.17
-31.37
-35.42
-38.46
-41.10
-44.26
-48.83
-55.42
-63.97
-73.53
-82.25
-87.68
-87.50
-80.29
-66.17
-46.91
-25.36
-4.63
12.93
26.21
35.34
41.19
44.84
47.11
48.47
49.19
49.41
49.25
48.76
47.94
46.63
44.71
42.13
39.07
35.92
33.22
31.46
30.89
31.36
32.26
32.76
32.03
29.61
25.56
20.41
14.90
9.70
5.17
1.20
-2.56
-6.59
-11.23
-16.56
-22.39
-28.27
-33.75
-38.44
-42.20
-45.27
-48.24
-51.99
-57.30
-64.51
-73.14
-81.71
-87.92
-89.29
-84.04
-71.79
-53.87
-32.90
-11.95
6.45
20.91
31.27
38.29
42.97
46.17
48.39
49.86
50.68
50.97
50.84
50.35
49.48
48.14
46.24
43.81
40.98
38.01
35.25
33.04
31.60
30.94
30.79
30.58
29.64
27.42
23.79
19.05
13.92
9.18
5.35
2.40
-0.21
-3.25
-7.37
-12.71
-18.88
-25.17
-30.84
-35.49
-39.17
-42.34
-45.65
-49.71
-54.94
-61.43
-68.91
-76.61
-83.15
-86.67
-85.29
-77.70
-63.83
-45.06
-23.89
-3.18
14.72
28.54
38.21
44.40
48.09
50.14
51.10
51.32
51.04
50.51
49.89
49.26
48.59
47.75
46.56
44.83
42.53
39.78
36.91
34.34
32.38
31.03
29.92
28.44
25.95
22.17
17.27
11.86
6.71
2.44
-0.75
-3.12
-5.33
-8.12
-12.00
-17.09
-23.02
-29.08
-34.51
-38.78
-41.83
-44.09
-46.32
-49.35
-53.86
-60.12
-67.82
-75.90
-82.60
-85.75
-83.36
-74.34
-59.08
-39.51
-18.54
0.88
16.66
28.08
35.53
40.06
42.64
43.91
44.20
43.73
42.79
41.73
40.77
39.90
38.89
37.43
35.41
32.98
30.58
28.66
27.58
27.33
27.60
27.79
27.30
25.67
22.77
18.82
14.32
9.82
5.78
2.35
-0.64
-3.59
-6.93
-10.90
-15.40
-20.04
-24.31
-27.86
-30.68
-33.18
-36.09
-40.16
-45.89
-53.17
-61.13
-68.11
-72.04
-71.00
-63.86
-50.85
-33.49
-14.19
4.47
20.53
33.05
41.99
47.92
51.59
53.61
54.44
54.53
54.32
54.27
54.74
55.78
57.15
58.43
59.23
59.47
59.49
59.98
61.73
65.25
70.60
77.46
85.29
93.74
102.82
112.81
124.13
137.06
151.53
166.93
182.03
194.98
203.54
205.60
199.84
186.23
166.06
141.44
114.56
86.99
59.52
32.45
6.13
-18.61
-40.56
-58.30
-70.62
-76.65
-75.91
-68.44
-55.13
-38.05
-20.53
-6.64
-0.03
-2.85
-14.97
-34.14
-56.92
-79.80
-100.19
-116.75
-129.18
-137.85
-143.41
-146.67
-148.54
-149.95
-151.66
-154.01
-156.87
-159.69
-161.72
-162.26
-160.78
-156.98
-150.78
-142.34
-132.07
-120.56
-108.49
-96.48
-84.97
-74.12
-63.81
-53.73
-43.45
-32.61
-21.10
-9.22
2.36
12.76
21.31
27.88
33.00
37.58
42.37
47.39
51.73
53.76
51.81
44.95
33.50
19.03
3.99
-9.03
-17.94
-21.52
-19.55
-12.63
-1.94
11.10
24.98
38.37
50.30
60.27
68.22
74.39
79.05
82.27
83.94
83.84
82.01
78.92
75.44
72.65
71.39
71.86
73.46
74.92
74.67
71.32
64.10
53.10
39.22
23.94
8.88
-4.73
-16.28
-25.89
-34.14
-41.76
-49.32
-57.03
-64.82
-72.48
-79.88
-86.99
-93.90
-100.77
-107.71
-114.84
-122.27
-130.02
-137.84
-144.93
-149.88
-150.85
-146.05
-134.51
-116.58
-94.05
-69.70
-46.44
-26.49
-10.83
0.71
9.07
15.39
20.54
24.99
28.88
32.18
34.86
36.87
38.21
38.89
39.01
38.72
38.23
37.78
37.54
37.58
37.79
37.92
37.56
36.27
33.73
29.88
24.96
19.50
14.10
9.24
5.05
1.29
-2.46
-6.68
-11.58
-17.06
-22.70
-27.99
-32.59
-36.52
-40.27
-44.59
-50.20
-57.35
-65.51
-73.31
-78.79
-80.00
-75.58
-65.31
-50.11
-31.84
-12.68
5.42
21.16
33.89
43.59
50.56
55.25
58.14
59.71
60.34
60.32
59.76
58.63
56.82
54.25
50.97
47.19
43.28
39.64
36.64
34.43
32.93
31.84
30.74
29.14
26.73
23.42
19.36
14.88
10.39
6.09
2.02
-2.05
-6.43
-11.32
-16.73
-22.40
-27.90
-32.84
-37.03
-40.65
-44.16
-48.25
-53.53
-60.30
-68.31
-76.62
-83.68
-87.58
-86.50
-79.33
-66.00
-47.71
-26.64
-5.39
13.73
29.17
40.41
47.74
51.94
53.89
54.40
54.02
53.20
52.19
51.09
49.88
48.37
46.39
43.82
40.72
37.32
34.05
31.36
29.62
28.96
29.16
29.71
29.93
29.26
27.43
24.62
21.27
17.90
14.83
11.97
8.97
5.35
0.76
-4.84
-11.17
-17.74
-24.02
-29.57
-34.30
-38.40
-42.42
-47.07
-53.00
-60.45
-69.00
-77.48
-84.06
-86.74
-83.87
-74.77
-59.96
-41.05
-20.39
-0.37
17.05
30.78
40.55
46.78
50.23
51.70
51.87
51.16
49.82
47.93
45.53
42.67
39.52
36.22
32.98
29.97
27.35
25.25
23.76
22.84
22.24
21.53
20.22
17.90
14.45
10.01
4.98
-0.24
-5.40
-10.52
-15.76
-21.28
-27.11
-33.06
-38.81
-44.05
-48.67
-52.90
-57.22
-62.24
-68.41
-75.65
-83.15
-89.39
-92.42
-90.43
-82.30
-68.12
-49.20
-27.76
-6.32
12.97
28.74
40.58
48.83
54.22
57.58
59.56
60.59
60.91
60.62
59.74
58.25
56.14
53.44
50.26
46.85
43.56
40.78
38.75
37.52
36.82
36.11
34.75
32.21
28.27
23.14
17.35
11.58
6.40
2.03
-1.70
-5.24
-9.12
-13.78
-19.30
-25.49
-31.96
-38.24
-44.06
-49.44
-54.68
-60.32
-66.84
-74.36
-82.36
-89.58
-94.21
-94.34
-88.56
-76.51
-58.97
-37.83
-15.44
5.94
24.62
39.78
51.33
59.66
65.37
69.02
71.06
71.86
71.67
70.68
69.01
66.65
63.49
59.47
54.66
49.44
44.41
40.22
37.29
35.58
34.57
33.46
31.50
28.29
23.90
18.84
13.69
8.93
4.77
1.10
-2.39
-6.10
-10.37
-15.38
-21.07
-27.20
-33.43
-39.49
-45.30
-51.07
-57.22
-64.23
-72.28
-80.99
-89.27
-95.42
-97.49
-93.87
-83.84
-67.84
-47.45
-24.92
-2.58
17.62
34.52
47.64
57.08
63.21
66.54
67.64
67.10
65.50
63.32
60.88
58.24
55.27
51.78
47.71
43.23
38.71
34.61
31.28
28.83
27.07
25.68
24.26
22.51
20.27
17.51
14.28
10.67
6.73
2.49
-2.06
-6.91
-12.03
-17.33
-22.67
-27.86
-32.83
-37.57
-42.33
-47.46
-53.39
-60.40
-68.32
-76.33
-82.99
-86.53
-85.31
-78.44
-66.03
-49.26
-30.01
-10.36
7.92
23.63
36.17
45.45
51.67
55.22
56.65
56.55
55.52
54.06
52.42
50.60
48.46
45.83
42.78
39.61
36.84
34.96
34.23
34.47
35.16
35.56
34.93
32.84
29.18
24.27
18.61
12.69
6.82
1.05
-4.82
-10.99
-17.51
-24.19
-30.63
-36.41
-41.31
-45.43
-49.28
-53.60
-59.16
-66.35
-74.97
-83.96
-91.50
-95.38
-93.64
-85.22
-70.41
-50.84
-28.99
-7.51
11.54
26.97
38.53
46.56
51.68
54.52
55.66
55.65
54.98
54.01
52.85
51.43
49.53
47.00
43.91
40.58
37.51
35.09
33.52
32.65
32.05
31.21
29.68
27.30
24.15
20.57
16.87
13.26
9.71
6.02
1.96
-2.62
-7.67
-13.02
-18.43
-23.74
-28.89
-33.95
-39.12
-44.73
-51.17
-58.75
-67.48
-76.79
-85.38
-91.42
-92.98
-88.64
-78.03
-62.03
-42.54
-21.89
-2.24
14.84
28.60
38.90
46.08
50.70
53.40
54.81
55.37
55.29
54.57
53.07
50.67
47.41
43.60
39.69
36.27
33.73
32.31
31.88
32.05
32.20
31.68
29.98
26.94
22.78
18.07
13.44
9.36
5.93
2.81
-0.57
-4.75
-10.02
-16.27
-23.02
-29.64
-35.60
-40.68
-45.08
-49.43
-54.52
-60.99
-68.95
-77.70
-85.74
-90.99
-91.43
-85.68
-73.51
-56.01
-35.27
-13.76
6.26
23.19
36.27
45.44
51.13
54.03
54.91
54.50
53.38
51.97
50.48
48.98
47.49
45.95
44.33
42.58
40.70
38.76
36.91
35.29
33.95
32.69
31.09
28.71
25.23
20.66
15.37
9.84
4.55
-0.31
-4.78
-9.05
-13.32
-17.65
-21.93
-25.92
-29.44
-32.46
-35.25
-38.37
-42.52
-48.34
-56.06
-65.17
-74.36
-81.72
-85.13
-82.93
-74.48
-60.33
-42.15
-22.23
-2.86
14.14
27.72
37.55
43.88
47.30
48.56
48.41
47.53
46.37
45.18
43.95
42.55
40.83
38.71
36.27
33.76
31.48
29.66
28.38
27.51
26.76
25.74
24.18
21.91
18.95
15.45
11.57
7.38
2.85
-2.10
-7.51
-13.29
-19.22
-25.02
-30.39
-35.17
-39.36
-43.27
-47.42
-52.44
-58.82
-66.56
-74.87
-82.15
-86.31
-85.35
-78.09
-64.64
-46.43
-25.75
-5.11
13.41
28.52
39.81
47.49
52.19
54.69
55.75
55.96
55.73
55.23
54.42
53.19
51.39
48.98
46.03
42.76
39.47
36.51
34.14
32.48
31.35
30.32
28.81
26.32
22.65
18.01
12.90
7.90
3.37
-0.73
-4.73
-9.10
-14.18
-20.00
-26.31
-32.68
-38.77
-44.39
-49.60
-54.72
-60.27
-66.71
-74.26
-82.50
-90.24
-95.60
-96.51
-91.32
-79.48
-61.87
-40.54
-18.19
2.63
20.06
33.23
42.09
47.22
49.55
50.12
49.88
49.58
49.60
49.93
50.27
50.15
49.19
47.20
44.27
40.73
37.03
33.64
30.91
29.00
27.73
26.70
25.37
23.32
20.47
17.07
13.59
10.45
7.72
5.16
2.27
-1.46
-6.27
-12.04
-18.38
-24.75
-30.69
-36.04
-40.97
-45.98
-51.76
-58.92
-67.65
-77.38
-86.72
-93.62
-95.96
-92.13
-81.70
-65.58
-45.78
-24.84
-5.09
11.85
25.26
35.15
41.98
46.36
48.86
49.99
50.20
49.90
49.36
48.71
47.90
46.79
45.26
43.38
41.39
39.62
38.37
37.72
37.48
37.20
36.37
34.60
31.75
27.97
23.63
19.16
14.91
11.03
7.42
3.78
-0.24
-4.89
-10.24
-16.05
-21.87
-27.28
-32.01
-36.23
-40.48
-45.56
-52.20
-60.63
-70.26
-79.52
-86.21
-88.02
-83.29
-71.65
-54.17
-33.21
-11.66
7.87
23.66
35.18
42.84
47.60
50.41
51.94
52.51
52.25
51.23
49.61
47.53
45.16
42.61
39.97
37.46
35.33
33.87
33.15
32.96
32.78
32.00
30.18
27.15
23.17
18.66
14.00
9.36
4.64
-0.37
-5.83
-11.70
-17.75
-23.64
-29.10
-34.02
-38.53
-42.98
-47.93
-53.89
-61.19
-69.69
-78.56
-86.26
-90.79
-90.21
-83.26
-69.92
-51.49
-30.29
-8.99
10.07
25.44
36.67
44.16
48.75
51.33
52.61
53.01
52.70
51.78
50.26
48.24
45.81
43.14
40.43
37.92
35.87
34.48
33.84
33.79
33.93
33.72
32.68
30.55
27.40
23.58
19.51
15.46
11.45
7.31
2.78
-2.32
-7.99
-14.02
-20.09
-25.91
-31.24
-36.14
-40.91
-46.10
-52.44
-60.45
-70.16
-80.72
-90.41
-96.89
-97.88
-91.94
-78.96
-60.36
-38.62
-16.56
3.42
19.80
32.09
40.51
45.76
48.63
49.94
50.37
50.46
50.50
50.50
50.27
49.50
48.01
45.84
43.22
40.53
38.14
36.34
35.18
34.54
34.07
33.33
31.87
29.44
26.02
21.88
17.41
13.00
8.85
4.84
0.63
-4.14
-9.70
-15.93
-22.44
-28.64
-34.09
-38.65
-42.71
-47.00
-52.47
-59.80
-69.07
-79.39
-88.97
-95.35
-96.14
-89.78
-76.15
-56.72
-34.21
-11.74
8.05
23.59
34.55
41.55
45.63
47.83
48.91
49.36
49.47
49.43
49.30
49.06
48.56
47.56
45.92
43.67
41.06
38.59
36.76
35.87
35.81
36.10
36.02
34.90
32.43
28.74
24.35
19.90
15.87
12.37
9.12
5.60
1.34
-3.86
-9.86
-16.14
-22.11
-27.30
-31.59
-35.29
-39.09
-43.85
-50.27
-58.50
-67.90
-76.92
-83.38
-85.02
-80.25
-68.74
-51.68
-31.44
-10.88
7.51
22.24
32.92
40.05
44.53
47.20
48.66
49.21
49.00
48.19
46.93
45.39
43.67
41.85
40.01
38.23
36.63
35.33
34.33
33.48
32.48
31.03
28.88
25.99
22.56
18.83
15.02
11.09
6.82
1.90
-3.91
-10.48
-17.39
-23.99
-29.70
-34.24
-37.81
-40.98
-44.61
-49.53
-56.35
-65.07
-74.93
-84.21
-90.56
-91.53
-85.35
-71.69
-51.92
-28.82
-5.70
14.52
30.09
40.58
46.68
49.59
50.51
50.38
49.81
49.13
48.48
47.85
47.15
46.13
44.61
42.48
39.85
37.07
34.64
33.00
32.33
32.40
32.60
32.16
30.46
27.23
22.73
17.54
12.30
7.41
2.89
-1.57
-6.40
-11.88
-18.01
-24.45
-30.73
-36.40
-41.27
-45.53
-49.74
-54.70
-61.18
-69.60
-79.58
-89.80
-98.02
-101.62
-98.46
-87.60
-69.89
-47.66
-24.09
-2.14
16.21
30.24
40.31
47.28
52.00
55.09
56.97
57.97
58.39
58.48
58.32
57.74
56.46
54.23
51.07
47.30
43.55
40.45
38.44
37.55
37.42
37.33
36.49
34.27
30.43
25.25
19.37
13.66
8.73
4.80
1.51
-1.89
-6.17
-11.74
-18.46
-25.69
-32.57
-38.47
-43.20
-47.12
-50.99
-55.70
-61.94
-69.90
-78.97
-87.74
-94.05
-95.59
-90.59
-78.44
-60.19
-38.18
-15.44
5.29
22.20
34.71
43.18
48.41
51.27
52.49
52.65
52.33
51.99
51.90
51.98
51.88
51.12
49.40
46.78
43.64
40.59
38.20
36.78
36.33
36.50
36.68
36.22
34.58
31.53
27.27
22.30
17.22
12.51
8.24
4.10
-0.38
-5.62
-11.67
-18.19
-24.59
-30.35
-35.16
-39.16
-42.83
-46.91
-52.13
-58.99
-67.43
-76.63
-84.90
-90.00
-89.72
-82.64
-68.75
-49.61
-27.90
-6.63
11.80
26.11
36.18
42.65
46.44
48.35
48.88
48.37
47.05
45.14
42.86
40.36
37.73
35.03
32.35
29.83
27.65
25.97
24.82
24.08
23.49
22.72
21.47
19.55
16.98
13.84
10.26
6.27
1.82
-3.11
-8.49
-14.12
-19.72
-25.00
-29.79
-34.08
-38.09
-42.23
-46.98
-52.85
-60.01
-68.06
-75.80
-81.31
-82.47
-77.62
-66.36
-49.70
-29.95
-9.90
8.00
22.26
32.52
39.23
43.18
45.07
45.44
44.63
43.04
41.05
39.07
37.29
35.71
34.16
32.49
30.66
28.82
27.21
26.02
25.23
24.61
23.85
22.64
20.81
18.33
15.25
11.57
7.25
2.20
-3.59
-10.00
-16.71
-23.25
-29.20
-34.32
-38.65
-42.60
-46.82
-52.05
-58.94
-67.63
-77.54
-87.09
-94.00
-95.77
-90.59
-78.10
-59.65
-37.92
-16.13
3.06
18.21
29.16
36.70
41.88
45.58
48.25
50.04
50.99
51.17
50.70
49.73
48.33
46.53
44.35
41.86
39.23
36.68
34.41
32.52
30.96
29.50
27.85
25.72
22.90
19.29
14.90
9.76
3.98
-2.27
-8.67
-14.90
-20.66
-25.85
-30.58
-35.20
-40.23
-46.20
-53.58
-62.47
-72.45
-82.36
-90.29
-93.96
-91.37
-81.59
-65.22
-44.33
-21.88
-0.82
16.82
30.20
39.66
46.13
50.63
53.89
56.27
57.78
58.41
58.17
57.17
55.63
53.74
51.65
49.36
46.82
43.94
40.75
37.42
34.22
31.46
29.31
27.68
26.26
24.53
21.94
18.10
12.92
6.66
-0.08
-6.57
-12.21
-16.72
-20.34
-23.74
-27.80
-33.31
-40.61
-49.33
-58.34
-65.89
-69.90
-68.45
-60.47
-46.17
-27.33
-6.88
11.96
26.80
36.87
43.20
47.91
53.14
59.92
67.68
74.64
78.65
78.32
73.61
65.74
56.69
48.26
41.55
36.70
33.17
30.23
27.33
24.37
21.45
18.70
15.98
12.93
9.08
4.15
-1.86
-8.61
-15.56
-22.23
-28.32
-33.86
-39.06
-44.20
-49.50
-55.04
-60.79
-66.82
-73.38
-80.92
-89.65
-99.14
-107.98
-113.85
-114.18
-107.12
-92.41
-71.68
-48.02
-24.90
-5.09
10.04
20.55
27.36
31.58
33.99
34.96
34.64
33.23
31.10
28.71
26.45
24.51
22.90
21.55
20.40
19.47
18.79
18.30
17.89
17.42
16.84
16.17
15.47
14.64
13.38
11.31
8.05
3.55
-1.91
-7.77
-13.47
-18.62
-23.12
-27.15
-31.07
-35.33
-40.43
-46.83
-54.76
-63.82
-72.80
-79.66
-82.01
-77.92
-66.69
-49.26
-28.06
-6.15
13.65
29.53
40.98
48.44
52.84
54.99
55.39
54.25
51.77
48.27
44.26
40.32
36.91
34.27
32.38
31.04
30.01
29.08
28.13
27.15
26.20
25.27
24.22
22.76
20.49
17.07
12.35
6.56
0.19
-6.10
-11.76
-16.58
-20.69
-24.54
-28.69
-33.71
-40.04
-47.92
-57.11
-66.73
-75.14
-80.16
-79.62
-72.12
-57.68
-37.89
-15.54
6.28
25.03
39.34
49.03
54.81
57.72
58.75
58.59
57.73
56.41
54.79
52.91
50.73
48.22
45.37
42.31
39.26
36.42
33.95
31.86
30.03
28.26
26.35
24.12
21.45
18.21
14.29
9.60
4.17
-1.86
-8.16
-14.34
-20.06
-25.16
-29.67
-33.78
-37.82
-42.14
-47.22
-53.54
-61.44
-70.80
-80.66
-89.12
-93.63
-91.74
-82.09
-65.03
-42.71
-18.43
4.42
23.38
37.36
46.56
51.94
54.61
55.46
55.16
54.14
52.78
51.32
49.83
48.20
46.18
43.59
40.48
37.10
33.91
31.32
29.55
28.53
27.95
27.34
26.26
24.43
21.74
18.24
14.05
9.30
4.06
-1.57
-7.45
-13.35
-18.96
-24.01
-28.43
-32.38
-36.31
-40.86
-46.68
-54.20
-63.36
-73.38
-82.64
-88.90
-89.75
-83.47
-69.68
-49.70
-26.27
-2.73
18.02
34.20
45.42
52.35
56.11
57.78
58.07
57.40
56.00
54.10
51.89
49.42
46.65
43.44
39.74
35.73
31.86
28.70
26.70
25.97
26.18
26.61
26.46
25.16
22.53
18.83
14.55
10.08
5.61
1.00
-4.01
-9.57
-15.58
-21.69
-27.45
-32.53
-36.84
-40.61
-44.32
-48.58
-54.02
-61.07
-69.64
-78.82
-86.66
-90.60
-88.15
-77.99
-60.65
-38.51
-15.07
6.28
23.30
35.37
43.11
47.70
50.18
51.18
50.95
49.76
47.99
46.13
44.52
43.19
41.87
40.22
38.09
35.70
33.57
32.20
31.80
32.12
32.47
32.06
30.36
27.29
23.28
18.98
14.97
11.47
8.30
4.96
0.89
-4.23
-10.35
-17.05
-23.67
-29.59
-34.48
-38.42
-41.97
-45.94
-51.19
-58.22
-66.83
-75.86
-83.31
-86.74
-84.02
-74.17
-57.78
-37.03
-14.97
5.37
21.88
33.68
41.08
45.02
46.57
46.56
45.48
43.56
41.01
38.02
34.82
31.68
28.82
26.44
24.66
23.52
22.92
22.68
22.54
22.24
21.57
20.38
18.62
16.25
13.30
9.81
5.79
1.33
-3.52
-8.67
-14.01
-19.43
-24.79
-29.90
-34.61
-38.86
-42.80
-46.86
-51.68
-57.85
-65.49
-73.86
-81.22
-85.22
-83.56
-74.95
-59.68
-39.68
-17.87
2.77
20.06
33.06
41.86
47.18
49.83
50.51
49.73
47.98
45.75
43.47
41.40
39.51
37.59
35.42
32.95
30.38
28.08
26.37
25.39
24.95
24.62
23.80
22.00
18.98
14.86
10.04
4.99
0.07
-4.59
-9.12
-13.75
-18.61
-23.67
-28.72
-33.49
-37.81
-41.73
-45.51
-49.59
-54.49
-60.69
-68.42
-77.30
-86.11
-92.81
-94.95
-90.50
-78.67
-60.40
-38.16
-15.23
5.46
22.07
34.18
42.43
47.84
51.29
53.26
54.02
53.80
53.01
52.02
51.09
50.11
48.73
46.58
43.54
39.96
36.52
33.89
32.48
32.17
32.35
32.20
31.01
28.43
24.58
19.97
15.24
10.90
7.08
3.50
-0.37
-5.01
-10.65
-17.04
-23.63
-29.79
-35.10
-39.51
-43.39
-47.39
-52.29
-58.69
-66.83
-76.22
-85.48
-92.45
-94.63
-90.00
-77.86
-59.23
-36.70
-13.51
7.35
24.07
36.14
44.11
48.91
51.42
52.26
51.87
50.73
49.28
47.94
46.87
45.93
44.81
43.22
41.05
38.51
36.02
34.08
33.01
32.82
33.18
33.45
32.91
30.98
27.46
22.58
16.96
11.31
6.11
1.52
-2.78
-7.27
-12.37
-18.18
-24.42
-30.54
-35.95
-40.31
-43.71
-46.63
-49.88
-54.34
-60.65
-68.94
-78.51
-87.78
-94.46
-96.12
-91.01
-78.68
-60.32
-38.44
-16.10
4.00
20.25
32.24
40.48
45.90
49.31
51.30
52.20
52.31
51.89
51.18
50.26
49.07
47.44
45.22
42.45
39.39
36.55
34.40
33.26
32.98
33.08
32.75
31.28
28.31
23.98
18.91
13.87
9.41
5.62
2.12
-1.73
-6.46
-12.18
-18.50
-24.74
-30.17
-34.42
-37.61
-40.36
-43.58
-48.20
-54.82
-63.40
-72.99
-81.80
-87.47
-87.72
-81.15
-67.76
-49.12
-27.85
-6.80
11.73
26.52
37.34
44.64
49.04
51.17
51.52
50.60
48.93
47.03
45.24
43.70
42.31
40.94
39.48
37.94
36.49
35.36
34.73
34.60
34.72
34.58
33.55
31.17
27.31
22.33
16.89
11.72
7.24
3.41
-0.24
-4.35
-9.35
-15.24
-21.57
-27.68
-32.99
-37.30
-40.86
-44.34
-48.61
-54.47
-62.35
-71.98
-82.21
-91.02
-95.92
-94.68
-86.18
-70.87
-50.75
-28.74
-7.75
10.23
24.39
34.93
42.53
47.87
51.44
53.50
54.38
54.46
54.17
53.80
53.38
52.69
51.48
49.64
47.34
44.99
43.04
41.84
41.42
41.48
41.51
40.89
39.10
35.89
31.33
25.87
20.13
14.70
9.91
5.66
1.49
-3.12
-8.54
-14.66
-20.99
-26.87
-31.76
-35.54
-38.59
-41.60
-45.34
-50.52
-57.49
-66.13
-75.58
-84.20
-89.76
-90.00
-83.46
-70.09
-51.45
-30.26
-9.55
8.38
22.38
32.52
39.54
44.33
47.54
49.55
50.60
50.98
51.01
50.94
50.87
50.68
50.09
48.85
46.89
44.39
41.73
39.42
37.81
37.01
36.76
36.51
35.60
33.49
29.96
25.22
19.84
14.54
9.91
6.21
3.27
0.58
-2.48
-6.36
-11.15
-16.57
-22.09
-27.15
-31.38
-34.79
-37.73
-40.91
-45.13
-51.09
-59.07
-68.64
-78.45
-86.32
-89.79
-86.87
-76.80
-60.50
-40.31
-19.31
-0.30
14.98
26.09
33.63
38.60
41.92
44.13
45.51
46.19
46.39
46.36
46.28
46.16
45.83
45.04
43.61
41.58
39.28
37.22
35.89
35.54
36.01
36.70
36.84
35.70
32.93
28.68
23.46
18.04
13.10
9.01
5.78
3.07
0.27
-3.19
-7.66
-13.16
-19.29
-25.42
-30.90
-35.39
-38.90
-41.83
-44.84
-48.63
-53.79
-60.58
-68.68
-77.02
-83.76
-86.64
-83.67
-73.91
-57.94
-37.90
-16.76
2.61
18.30
29.64
37.05
41.44
43.73
44.58
44.38
43.46
42.18
40.89
39.87
39.13
38.51
37.65
36.26
34.27
31.93
29.75
28.28
27.83
28.29
29.08
29.32
28.26
25.55
21.44
16.61
11.84
7.65
4.15
0.98
-2.39
-6.36
-11.03
-16.15
-21.28
-25.98
-29.98
-33.23
-35.95
-38.54
-41.56
-45.63
-51.23
-58.45
-66.62
-74.25
-79.17
-79.22
-72.97
-60.39
-42.94
-23.22
-3.99
12.54
25.28
34.16
39.76
42.87
44.17
44.14
43.21
41.78
40.26
38.89
37.72
36.58
35.19
33.34
31.03
28.52
26.25
24.69
24.10
24.33
24.82
24.81
23.62
20.96
17.06
12.52
8.02
4.01
0.52
-2.82
-6.51
-10.88
-15.96
-21.38
-26.64
-31.30
-35.18
-38.47
-41.60
-45.19
-49.81
-55.95
-63.75
-72.75
-81.72
-88.66
-91.19
-87.34
-76.35
-59.12
-38.11
-16.49
2.86
18.22
29.21
36.51
41.17
44.06
45.69
46.31
46.18
45.70
45.26
45.08
45.04
44.73
43.73
41.81
39.13
36.22
33.77
32.28
31.88
32.19
32.48
31.93
29.98
26.51
21.89
16.78
11.87
7.58
3.93
0.53
-3.21
-7.73
-13.16
-19.21
-25.34
-30.96
-35.71
-39.59
-42.96
-46.48
-50.91
-56.94
-64.89
-74.48
-84.46
-92.75
-96.79
-94.36
-84.48
-67.91
-47.03
-25.05
-4.92
11.52
23.81
32.53
38.67
43.05
46.14
48.17
49.38
50.11
50.69
51.19
51.38
50.80
49.05
46.07
42.27
38.34
35.07
32.96
32.13
32.24
32.67
32.64
31.47
28.76
24.52
19.21
13.56
8.37
4.07
0.64
-2.41
-5.77
-9.92
-14.98
-20.59
-26.20
-31.35
-35.81
-39.72
-43.45
-47.57
-52.66
-59.22
-67.36
-76.47
-85.07
-90.91
-91.57
-85.40
-72.24
-53.62
-32.34
-11.46
6.61
20.72
30.88
37.83
42.45
45.40
47.11
47.88
48.07
48.03
48.00
48.03
47.91
47.34
46.06
44.06
41.58
39.07
37.02
35.73
35.22
35.17
35.00
34.06
31.84
28.18
23.34
17.92
12.68
8.20
4.64
1.68
-1.38
-5.19
-10.09
-15.89
-21.98
-27.66
-32.45
-36.33
-39.67
-43.11
-47.39
-53.16
-60.75
-69.92
-79.59
-87.85
-92.25
-90.63
-81.89
-66.60
-46.87
-25.72
-6.01
10.33
22.62
31.19
36.86
40.44
42.53
43.53
43.75
43.50
43.02
42.39
41.54
40.26
38.45
36.16
33.70
31.49
29.94
29.16
29.02
29.04
28.63
27.33
24.91
21.46
17.31
12.86
8.42
4.10
-0.18
-4.62
-9.38
-14.47
-19.73
-24.84
-29.47
-33.51
-37.12
-40.79
-45.29
-51.37
-59.33
-68.75
-78.18
-85.39
-87.96
-84.04
-73.14
-56.38
-36.19
-15.50
3.10
18.09
29.15
36.82
42.03
45.61
48.09
49.72
50.60
50.82
50.42
49.42
47.77
45.48
42.63
39.46
36.41
33.96
32.44
31.90
31.93
31.88
31.02
28.92
25.54
21.22
16.54
11.95
7.64
3.54
-0.64
-5.18
-10.21
-15.71
-21.44
-27.12
-32.47
-37.31
-41.69
-45.96
-50.72
-56.71
-64.37
-73.45
-82.74
-90.09
-93.04
-89.62
-79.15
-62.58
-42.23
-20.99
-1.43
14.87
27.37
36.44
42.77
47.08
49.94
51.85
53.18
54.27
55.23
55.94
56.05
55.15
52.95
49.51
45.28
40.98
37.32
34.79
33.47
33.05
32.88
32.31
30.80
28.19
24.62
20.48
16.26
12.24
8.46
4.63
0.34
-4.68
-10.43
-16.58
-22.61
-28.10
-32.96
-37.47
-42.17
-47.74
-54.77
-63.54
-73.82
-84.58
-93.99
-99.63
-99.20
-91.31
-76.20
-55.82
-33.27
-11.77
6.32
20.03
29.69
36.33
41.07
44.67
47.49
49.63
51.12
52.05
52.53
52.60
52.17
51.09
49.24
46.69
43.75
40.93
38.77
37.59
37.35
37.60
37.65
36.80
34.65
31.18
26.78
22.03
17.52
13.57
10.14
6.86
3.19
-1.35
-6.91
-13.29
-19.99
-26.36
-31.89
-36.35
-39.92
-43.16
-46.88
-51.92
-58.87
-67.61
-77.15
-85.55
-90.36
-89.39
-81.54
-67.24
-48.44
-27.98
-8.57
7.91
20.76
30.27
37.16
42.14
45.65
47.95
49.28
50.00
50.44
50.81
51.06
50.86
49.86
47.87
45.04
41.83
38.90
36.77
35.69
35.49
35.67
35.55
34.49
32.11
28.39
23.69
18.62
13.77
9.50
5.79
2.32
-1.40
-5.70
-10.65
-15.95
-21.14
-25.75
-29.58
-32.76
-35.72
-39.09
-43.50
-49.46
-57.10
-66.01
-75.00
-82.21
-85.47
-83.03
-74.23
-59.87
-41.95
-23.07
-5.56
9.13
20.51
28.84
34.69
38.56
40.83
41.83
41.93
41.50
40.80
39.94
38.81
37.26
35.21
32.82
30.45
28.50
27.32
26.94
27.10
27.29
26.96
25.68
23.30
20.02
16.24
12.39
8.72
5.23
1.73
-2.08
-6.37
-11.06
-15.89
-20.44
-24.40
-27.74
-30.76
-34.08
-38.46
-44.51
-52.39
-61.54
-70.58
-77.53
-80.25
-77.16
-67.84
-53.22
-35.37
-16.82
0.19
14.30
25.07
32.76
37.93
41.08
42.63
42.97
42.53
41.79
41.10
40.54
39.93
38.94
37.35
35.22
32.90
30.87
29.54
28.97
28.87
28.67
27.80
25.88
22.89
19.13
15.11
11.28
7.86
4.79
1.78
-1.56
-5.53
-10.22
-15.50
-21.07
-26.55
-31.59
-36.02
-39.95
-43.78
-48.23
-54.00
-61.40
-69.89
-77.99
-83.45
-84.03
-78.30
-66.29
-49.52
-30.51
-11.87
4.41
17.42
27.13
34.09
38.93
42.16
44.17
45.28
45.87
46.19
46.39
46.35
45.82
44.53
42.36
39.48
36.29
33.29
30.97
29.56
29.03
29.01
28.92
28.17
26.34
23.34
19.46
15.23
11.18
7.55
4.17
0.58
-3.74
-9.03
-15.09
-21.36
-27.17
-32.03
-35.87
-39.04
-42.20
-46.12
-51.45
-58.47
-66.87
-75.51
-82.49
-85.57
-82.84
-73.51
-58.32
-39.40
-19.59
-1.54
13.11
23.90
31.30
36.20
39.36
41.28
42.24
42.51
42.37
42.14
41.99
41.85
41.47
40.52
38.83
36.55
34.11
32.12
31.05
31.04
31.73
32.42
32.26
30.61
27.32
22.75
17.66
12.82
8.71
5.39
2.47
-0.60
-4.35
-8.98
-14.32
-19.93
-25.26
-29.87
-33.63
-36.71
-39.60
-42.97
-47.51
-53.69
-61.45
-69.94
-77.47
-81.84
-81.00
-73.81
-60.57
-43.02
-23.79
-5.52
9.90
21.65
29.90
35.29
38.51
40.13
40.60
40.37
39.91
39.57
39.51
39.55
39.28
38.33
36.54
34.12
31.54
29.35
27.91
27.24
27.00
26.58
25.41
23.14
19.78
15.70
11.42
7.42
3.93
0.88
-2.10
-5.42
-9.35
-13.93
-18.88
-23.79
-28.22
-31.96
-35.04
-37.87
-41.08
-45.35
-51.17
-58.51
-66.63
-74.01
-78.64
-78.58
-72.60
-60.72
-44.27
-25.57
-7.21
8.72
21.05
29.62
34.99
38.00
39.41
39.76
39.37
38.43
37.14
35.66
34.10
32.53
31.00
29.53
28.23
27.25
26.70
26.54
26.54
26.29
25.35
23.40
20.40
16.58
12.36
8.15
4.18
0.43
-3.33
-7.35
-11.81
-16.67
-21.73
-26.70
-31.33
-35.55
-39.52
-43.56
-48.20
-53.90
-60.88
-68.85
-76.74
-82.77
-84.83
-81.17
-71.12
-55.46
-36.29
-16.36
1.78
16.56
27.52
35.09
40.09
43.26
45.12
46.00
46.18
45.91
45.41
44.73
43.78
42.40
40.45
38.02
35.37
32.91
31.03
30.00
29.76
29.95
29.93
29.09
26.97
23.55
19.15
14.35
9.64
5.21
0.93
-3.54
-8.45
-13.82
-19.36
-24.66
-29.37
-33.37
-36.92
-40.57
-45.00
-50.90
-58.65
-67.99
-77.85
-86.31
-90.99
-89.81
-81.69
-67.10
-48.00
-27.21
-7.45
9.39
22.63
32.61
40.13
45.89
50.24
53.21
54.71
54.76
53.53
51.33
48.40
44.90
40.91
36.54
32.09
28.04
24.98
23.35
23.23
24.26
25.70
26.64
26.35
24.53
21.36
17.41
13.37
9.71
6.50
3.40
-0.14
-4.58
-10.01
-16.13
-22.29
-27.91
-32.65
-36.58
-40.19
-44.22
-49.46
-56.48
-65.31
-75.14
-84.26
-90.26
-90.78
-84.30
-70.84
-52.07
-30.79
-10.02
7.95
22.02
32.26
39.37
44.20
47.40
49.35
50.35
50.65
50.53
50.22
49.77
49.05
47.87
46.10
43.79
41.29
39.07
37.54
36.87
36.85
36.91
36.37
34.66
31.58
27.33
22.45
17.55
13.08
9.13
5.43
1.51
-3.06
-8.45
-14.46
-20.63
-26.42
-31.44
-35.63
-39.35
-43.25
-48.13
-54.70
-63.19
-73.06
-82.81
-90.13
-92.49
-88.00
-76.20
-58.34
-37.10
-15.64
3.36
18.40
29.29
36.68
41.55
44.68
46.55
47.48
47.78
47.77
47.69
47.52
47.02
45.85
43.85
41.19
38.37
36.01
34.53
33.96
33.87
33.63
32.59
30.40
27.07
22.91
18.35
13.77
9.32
4.95
0.51
-4.18
-9.12
-14.19
-19.14
-23.74
-27.93
-31.79
-35.66
-39.95
-45.13
-51.53
-59.08
-67.13
-74.28
-78.58
-78.10
-71.63
-59.20
-42.24
-23.17
-4.65
11.26
23.52
32.16
37.82
41.32
43.30
44.14
44.00
43.07
41.53
39.66
37.70
35.84
34.18
32.77
31.61
30.71
30.06
29.62
29.26
28.73
27.71
25.93
23.32
20.02
16.35
12.59
8.84
