1588504529.00
64.000000
-0.00
-0.00
-0.00
-0.00
-0.00
-0.00
-0.00
-0.00
-0.00
-0.00
0.00
0.01
0.01
-0.00
-0.03
-0.05
-0.05
0.00
0.13
0.36
0.66
1.01
1.37
1.72
2.06
2.40
2.79
3.24
3.80
4.42
5.06
5.66
6.20
6.68
7.15
7.68
8.31
9.14
10.09
11.04
11.88
12.56
13.14
13.76
14.65
15.96
17.91
20.32
22.90
25.38
27.58
29.57
31.68
34.32
37.81
42.54
48.15
54.10
59.83
64.97
69.58
74.14
79.34
85.71
93.76
103.00
112.62
121.73
129.77
136.75
143.30
150.75
157.77
166.64
177.95
191.79
206.97
220.57
228.25
225.36
208.53
176.87
132.76
80.05
23.07
-34.94
-92.44
-149.16
-205.23
-260.37
-313.74
-363.87
-409.83
-450.91
-486.50
-515.74
-537.23
-549.22
-549.96
-538.37
-514.21
-478.67
-433.88
-382.45
-327.02
-269.84
-212.63
-156.66
-102.95
-52.37
-5.90
35.58
71.43
101.35
125.50
144.38
158.69
169.15
176.37
180.75
182.57
182.07
179.51
175.23
169.65
163.18
156.15
148.81
141.30
133.69
126.02
118.33
110.69
103.16
95.80
88.68
81.83
75.25
68.95
62.95
57.25
51.86
46.78
42.03
37.59
33.45
29.61
26.07
22.81
19.83
17.11
14.67
12.48
10.54
8.83
7.35
6.07
4.97
4.05
3.27
2.62
2.09
1.65
1.30
1.01
0.79
0.61
0.47
0.37
0.29
0.23
0.18
0.16
0.14
0.13
0.14
0.15
0.18
0.20
0.24
0.28
0.32
0.37
0.42
0.47
0.53
0.58
0.64
0.70
0.75
0.81
0.88
0.96
1.06
1.16
1.24
1.29
1.30
1.28
1.27
1.30
1.41
1.61
1.88
2.18
2.46
2.71
2.93
3.17
3.47
3.89
4.42
5.03
5.64
6.18
6.60
6.94
7.30
7.78
8.50
9.47
10.56
11.60
12.39
12.85
13.02
13.18
13.59
14.51
15.93
17.55
18.87
19.36
18.67
16.77
14.02
10.92
7.89
4.98
1.84
-2.19
-7.70
-14.86
-23.29
-32.01
-39.89
-46.06
-50.17
-52.56
-53.99
-55.25
-57.01
-59.72
-63.47
-67.77
-71.22
-71.39
-65.51
-51.60
-29.79
-2.86
24.39
46.85
61.00
66.12
64.09
58.03
50.79
43.89
37.61
31.63
25.90
20.88
17.31
15.71
15.99
17.49
19.30
20.70
21.44
21.79
22.24
23.22
24.82
26.73
28.40
29.31
29.34
28.82
28.36
28.56
29.68
31.48
33.44
35.06
36.32
37.93
41.02
46.65
55.23
66.19
78.13
89.30
98.16
103.51
104.64
101.54
94.57
84.24
71.15
55.98
39.51
22.64
6.23
-8.91
-22.24
-33.47
-42.64
-50.00
-55.98
-61.04
-65.62
-70.06
-74.47
-78.79
-82.80
-86.20
-88.67
-89.92
-89.83
-88.46
-86.00
-82.51
-77.61
-70.33
-59.14
-42.42
-19.10
10.72
45.60
82.96
119.81
153.44
181.84
203.85
218.96
227.21
228.97
225.01
216.31
203.93
188.82
171.69
153.00
133.13
112.58
92.03
72.21
53.73
36.80
21.24
6.52
-7.91
-22.39
-36.80
-50.64
-63.19
-73.91
-82.70
-89.93
-96.29
-102.34
-108.30
-113.89
-118.50
-121.46
-122.18
-120.33
-115.80
-108.72
-99.52
-88.99
-78.25
-68.62
-61.30
-56.99
-55.75
-56.88
-59.23
-61.48
-62.60
-62.13
-60.24
-57.52
-54.69
-52.20
-50.05
-47.84
-45.21
-42.11
-39.00
-36.67
-35.81
-36.61
-38.67
-41.21
-43.56
-45.55
-47.57
-50.41
-54.79
-60.95
-68.55
-76.75
-84.48
-90.60
-94.07
-94.01
-89.91
-81.71
-69.99
-55.85
-40.73
-26.03
-12.91
-2.15
5.80
10.67
12.39
11.11
7.38
2.14
-3.46
-8.29
-11.67
-13.50
-14.29
-14.86
-16.02
-18.28
-21.68
-25.90
-30.35
-34.50
-37.96
-40.63
-42.76
-44.87
-47.68
-51.93
-58.03
-65.76
-74.10
-81.30
-85.27
-84.24
-77.27
-64.63
-47.71
-28.59
-9.45
7.89
22.34
33.37
40.92
45.11
46.11
44.19
39.81
33.65
26.53
19.32
12.77
7.35
3.24
0.35
-1.62
-3.03
-4.25
-5.58
-7.26
-9.44
-12.26
-15.78
-20.00
-24.89
-30.39
-36.55
-43.59
-51.79
-61.20
-71.24
-80.47
-86.73
-87.72
-81.84
-68.77
-49.78
-27.26
-4.05
17.41
35.51
49.56
59.49
65.52
67.88
66.91
63.07
57.16
50.19
43.26
37.23
32.47
28.85
25.85
22.81
19.26
15.06
10.41
5.77
1.53
-2.14
-5.34
-8.44
-11.85
-15.95
-21.03
-27.31
-34.85
-43.39
-52.15
-59.67
-64.08
-63.56
-56.96
-44.25
-26.65
-6.20
14.77
34.30
51.10
64.49
74.23
80.24
82.56
81.34
77.12
70.82
63.71
57.20
52.45
50.09
49.99
51.37
53.01
53.70
52.52
49.09
43.65
36.73
28.99
20.96
12.84
4.69
-3.62
-12.23
-21.30
-30.95
-41.13
-51.32
-60.34
-66.44
-67.64
-62.50
-50.78
-33.71
-13.69
6.45
24.35
38.64
48.97
55.63
59.04
59.45
57.00
51.96
45.03
37.26
29.90
23.97
19.93
17.57
16.15
14.76
12.61
9.34
5.02
0.06
-5.04
-9.95
-14.63
-19.35
-24.59
-30.95
-38.90
-48.59
-59.60
-70.80
-80.40
-86.25
-86.38
-79.61
-65.96
-46.72
-24.12
-0.74
21.07
39.57
53.71
63.04
67.60
67.80
64.46
58.72
51.94
45.46
40.41
37.41
36.53
37.31
38.98
40.78
42.16
42.95
43.29
43.41
43.42
43.10
41.94
39.19
34.11
26.08
14.86
0.74
-15.23
-31.12
-44.31
-52.12
-52.52
-44.95
-30.53
-11.67
8.73
28.24
45.37
59.57
70.74
78.69
83.01
83.36
79.85
73.38
65.50
57.95
51.92
47.76
44.88
42.26
39.08
35.09
30.72
26.72
23.65
21.49
19.62
17.14
13.34
7.95
1.01
-7.32
-17.03
-28.04
-39.74
-50.67
-58.47
-60.66
-55.57
-43.15
-25.08
-4.09
17.01
36.21
52.59
65.93
76.16
82.96
85.83
84.51
79.38
71.64
62.98
54.98
48.62
44.01
40.48
37.07
32.99
27.97
22.31
16.55
11.18
6.33
1.74
-3.09
-8.62
-15.19
-22.98
-32.04
-42.27
-53.19
-63.73
-72.20
-76.53
-74.99
-66.81
-52.60
-34.15
-13.88
5.92
23.58
38.19
49.36
57.03
61.19
61.97
59.73
55.09
48.85
41.92
35.01
28.65
23.03
18.11
13.65
9.33
4.93
0.37
-4.22
-8.65
-12.80
-16.75
-20.79
-25.36
-30.92
-37.77
-45.96
-55.17
-64.64
-73.06
-78.83
-80.22
-76.02
-65.92
-50.78
-32.41
-13.09
5.02
20.38
32.16
40.08
44.19
44.72
42.03
36.73
29.68
21.96
14.59
8.35
3.60
0.20
-2.32
-4.51
-6.87
-9.58
-12.53
-15.47
-18.13
-20.50
-22.85
-25.65
-29.41
-34.49
-40.98
-48.69
-57.08
-65.23
-71.83
-75.32
-74.21
-67.57
-55.44
-38.98
-20.21
-1.45
15.30
28.83
38.70
45.08
48.33
48.83
46.90
42.99
37.77
32.20
27.22
23.54
21.34
20.22
19.44
18.27
16.32
13.74
11.08
8.95
7.74
7.32
7.13
6.27
3.88
-0.61
-7.22
-15.35
-23.78
-30.92
-35.13
-35.13
-30.37
-21.12
-8.45
6.08
20.78
34.19
45.29
53.53
58.78
61.27
61.34
59.47
56.17
51.92
47.17
42.32
37.65
33.32
29.28
25.30
21.09
16.35
11.00
5.16
-0.79
-6.45
-11.53
-16.13
-20.75
-26.18
-33.21
-42.18
-52.82
-64.03
-74.12
-81.24
-83.85
-81.16
-73.36
-61.49
-47.08
-31.75
-16.89
-3.49
7.78
16.47
22.34
25.25
25.33
23.02
19.01
14.16
9.28
4.96
1.44
-1.36
-3.75
-6.06
-8.51
-11.12
-13.71
-16.08
-18.11
-19.90
-21.78
-24.22
-27.73
-32.73
-39.37
-47.32
-55.69
-63.03
-67.61
-67.79
-62.67
-52.35
-38.07
-21.85
-5.87
8.05
18.83
26.17
30.31
31.67
30.66
27.55
22.65
16.43
9.56
2.94
-2.63
-6.64
-9.12
-10.54
-11.62
-12.98
-14.83
-16.93
-18.81
-20.08
-20.74
-21.30
-22.61
-25.56
-30.81
-38.52
-48.23
-58.90
-68.94
-76.43
-79.50
-76.72
-67.59
-52.64
-33.41
-12.02
9.36
28.82
45.07
57.34
65.30
69.02
68.86
65.47
59.81
53.00
46.18
40.31
35.97
33.24
31.75
30.89
30.01
28.69
26.80
24.52
22.05
19.53
16.82
13.64
9.60
4.32
-2.48
-10.96
-21.04
-32.20
-43.31
-52.70
-58.40
-58.70
-52.71
-40.69
-23.97
-4.50
15.69
34.91
51.96
65.96
76.13
81.68
82.01
77.04
67.52
54.96
41.41
28.81
18.41
10.44
4.21
-1.48
-7.70
-14.93
-22.93
-30.96
-38.12
-43.73
-47.58
-49.94
-51.50
-53.31
-56.54
-62.15
-70.49
-80.78
-91.06
-98.50
-100.40
-95.25
-83.54
-67.59
-50.84
-36.61
-27.17
-23.37
-24.87
-30.70
-39.73
-50.83
-62.96
-75.02
-86.06
-95.35
-102.35
-106.56
-107.39
-104.26
-97.11
-86.83
-75.37
-65.09
-57.53
-52.37
-47.01
-37.40
-19.74
7.68
43.39
82.81
119.78
148.50
165.29
169.55
163.58
151.54
138.02
126.78
119.96
118.02
120.19
125.03
131.00
136.63
140.58
141.60
138.64
131.19
119.51
104.72
88.55
72.80
58.84
47.24
37.79
29.77
22.34
14.85
7.06
-0.96
-8.86
-16.25
-22.89
-28.74
-34.14
-39.65
-45.93
-53.58
-62.90
-73.75
-85.38
-96.50
-105.33
-109.95
-108.77
-100.96
-86.78
-67.60
-45.52
-22.84
-1.59
16.88
31.77
42.76
49.76
52.79
52.10
48.23
42.11
34.89
27.76
21.61
16.86
13.43
10.91
8.78
6.69
4.48
2.16
-0.24
-2.77
-5.55
-8.76
-12.60
-17.28
-23.04
-30.12
-38.52
-47.64
-56.16
-62.09
-63.30
-58.28
-46.75
-29.88
-9.93
10.50
29.14
44.59
56.26
64.16
68.49
69.44
67.24
62.30
55.36
47.48
39.78
33.20
28.21
24.76
22.30
20.16
17.68
14.53
10.73
6.51
2.18
-2.04
-6.12
-10.18
-14.44
-19.26
-25.02
-32.15
-40.93
-51.09
-61.67
-70.87
-76.37
-76.02
-68.57
-54.19
-34.55
-12.29
9.74
29.27
44.92
56.26
63.40
66.65
66.32
62.78
56.64
48.85
40.59
33.07
27.14
23.10
20.66
19.11
17.66
15.73
13.03
9.60
5.66
1.42
-2.99
-7.60
-12.56
-18.09
-24.49
-32.08
-41.07
-51.33
-62.19
-72.30
-79.74
-82.47
-78.97
-68.69
-52.44
-32.14
-10.34
10.45
28.31
42.16
51.71
57.16
58.95
57.54
53.39
47.11
39.56
31.84
25.15
20.42
18.07
17.81
18.77
19.85
20.12
19.16
17.11
14.46
11.70
9.00
6.16
2.69
-1.95
-8.19
-16.24
-26.07
-37.25
-48.79
-59.11
-66.14
-67.81
-62.73
-50.78
-33.33
-12.80
7.95
26.46
41.18
51.52
57.66
60.06
59.28
55.80
50.17
43.06
35.37
28.07
22.08
17.95
15.71
14.89
14.67
14.18
12.78
10.21
6.62
2.40
-1.97
-6.13
-9.87
-13.28
-16.71
-20.76
-26.15
-33.40
-42.48
-52.56
-61.91
-68.29
-69.58
-64.53
-53.17
-36.90
-18.02
0.97
17.99
31.67
41.35
46.92
48.50
46.44
41.30
33.91
25.32
16.65
8.92
2.77
-1.57
-4.27
-5.78
-6.68
-7.44
-8.43
-9.82
-11.70
-14.09
-16.99
-20.49
-24.71
-29.82
-36.04
-43.53
-52.27
-61.82
-71.19
-78.90
-83.20
-82.47
-75.77
-63.14
-45.68
-25.33
-4.37
15.10
31.53
44.08
52.54
57.11
58.29
56.72
53.18
48.61
43.98
40.14
37.56
36.24
35.64
35.00
33.53
30.78
26.65
21.33
15.03
7.78
-0.68
-10.71
-22.59
-36.36
-51.85
-68.74
-86.78
-105.66
-124.81
-143.14
-159.01
-170.51
-175.98
-174.48
-165.89
-150.81
-130.32
-105.78
-78.84
-51.58
-26.46
-5.90
8.29
15.57
16.90
14.37
10.56
7.61
6.70
7.93
10.64
14.05
17.67
21.49
25.79
30.74
36.18
41.59
46.37
50.20
53.14
55.61
57.95
60.18
61.92
62.59
61.80
59.73
57.18
55.50
56.11
60.07
67.68
78.20
89.95
100.75
108.60
112.27
111.75
108.04
102.66
96.89
91.28
85.54
78.99
71.14
62.06
52.40
43.04
34.57
26.99
19.81
12.44
4.61
-3.45
-11.12
-17.79
-23.26
-27.85
-32.24
-37.15
-43.04
-49.99
-57.82
-66.12
-74.27
-81.34
-85.97
-86.52
-81.55
-70.27
-53.08
-31.66
-8.54
13.50
32.20
46.26
55.50
60.47
62.13
61.36
58.87
55.12
50.55
45.66
41.12
37.67
35.86
35.93
37.72
40.68
44.15
47.56
50.51
52.78
54.14
54.25
52.69
49.01
43.00
34.78
24.63
12.89
-0.17
-14.22
-28.50
-41.58
-51.43
-55.95
-53.66
-44.45
-29.63
-11.61
6.94
23.90
38.09
49.30
57.88
64.32
68.90
71.68
72.63
71.77
69.38
65.95
62.07
58.19
54.44
50.58
46.14
40.67
34.05
26.55
18.75
11.26
4.48
-1.52
-7.00
-12.38
-18.08
-24.44
-31.70
-39.95
-49.04
-58.41
-67.04
-73.53
-76.44
-74.62
-67.63
-55.85
-40.42
-22.91
-5.04
11.75
26.36
38.19
47.05
53.10
56.83
58.92
60.13
61.12
62.19
63.10
63.12
61.25
56.58
48.69
37.82
24.77
10.68
-3.27
-16.11
-27.11
-35.83
-42.15
-46.33
-49.12
-51.65
-55.13
-60.52
-68.13
-77.43
-87.12
-95.36
-100.28
-100.49
-95.42
-85.48
-71.85
-56.15
-39.96
-24.55
-10.76
0.91
10.11
16.57
20.11
20.69
18.57
14.28
8.62
2.45
-3.41
-8.37
-12.20
-15.02
-17.32
-19.68
-22.61
-26.37
-30.90
-35.96
-41.28
-46.70
-52.25
-58.10
-64.51
-71.80
-80.23
-89.87
-100.32
-110.54
-118.79
-122.92
-120.98
-111.84
-95.71
-74.19
-49.83
-25.42
-3.21
15.42
30.06
40.88
48.28
52.60
54.12
53.10
49.94
45.26
39.76
34.09
28.73
23.89
19.55
15.55
11.67
7.73
3.62
-0.74
-5.34
-10.16
-15.17
-20.31
-25.58
-30.98
-36.66
-42.81
-49.61
-56.99
-64.35
-70.46
-73.70
-72.52
-65.99
-54.25
-38.41
-20.20
-1.40
16.67
33.24
47.93
60.45
70.35
77.16
80.48
80.26
76.82
70.81
63.19
55.05
47.60
41.95
38.83
38.28
39.52
41.13
41.50
39.49
34.83
28.14
20.48
12.67
4.90
-3.41
-13.20
-25.24
-39.55
-55.21
-70.51
-83.26
-91.45
-93.60
-89.20
-78.76
-63.75
-46.26
-28.48
-12.28
1.17
11.33
18.19
22.00
23.08
21.91
19.15
15.76
12.82
11.31
11.67
13.75
16.83
19.91
22.06
22.65
21.50
18.78
15.00
10.69
6.35
2.27
-1.68
-5.98
-11.36
-18.73
-28.84
-42.06
-58.13
-75.87
-93.19
-107.33
-115.42
-115.30
-106.19
-88.97
-65.86
-39.77
-13.53
10.78
31.88
49.24
62.73
72.44
78.65
81.81
82.58
81.70
79.85
77.46
74.71
71.56
67.87
63.55
58.67
53.44
48.16
43.08
38.29
33.74
29.24
24.55
19.47
13.82
7.41
0.04
-8.48
-18.22
-28.95
-39.99
-50.07
-57.44
-60.23
-56.89
-46.75
-30.35
-9.45
13.39
35.52
54.84
70.21
81.40
88.76
92.85
94.13
93.02
89.94
85.50
80.43
75.52
71.30
68.03
65.59
63.61
61.56
58.88
55.12
49.96
43.25
34.93
25.01
13.49
0.37
-14.25
-30.13
-46.95
-64.32
-81.93
-99.39
-116.00
-130.45
-140.79
-144.80
-140.67
-127.82
-107.24
-81.42
-53.66
-27.17
-4.48
12.93
24.53
30.57
31.79
29.35
24.64
19.21
14.51
11.71
11.55
14.22
19.34
25.96
32.74
38.13
40.73
39.68
34.91
27.05
17.20
6.50
-4.20
-14.44
-24.12
-33.28
-42.06
-50.63
-59.26
-68.30
-77.89
-87.60
-96.25
-101.97
-102.73
-97.11
-84.89
-67.27
-46.45
-25.04
-5.20
11.60
24.68
33.88
39.21
40.77
38.87
34.15
27.65
20.73
14.76
10.79
9.34
10.29
13.01
16.59
20.09
22.68
23.86
23.34
21.09
17.28
12.24
6.36
0.03
-6.48
-13.19
-20.45
-28.84
-38.85
-50.43
-62.63
-73.55
-80.76
-82.08
-76.34
-63.88
-46.47
-26.69
-7.14
10.25
24.44
35.13
42.38
46.32
47.01
44.56
39.34
32.09
23.85
15.75
8.69
3.09
-1.17
-4.63
-7.97
-11.70
-16.01
-20.73
-25.58
-30.34
-35.08
-40.21
-46.35
-54.21
-64.46
-77.47
-92.98
-109.77
-125.36
-136.31
-138.95
-130.51
-110.21
-79.63
-42.34
-2.70
35.38
69.41
98.46
122.59
142.13
157.00
166.64
170.39
168.01
160.02
147.75
132.90
117.17
101.86
87.66
74.83
63.43
53.46
44.86
37.49
31.00
24.81
18.31
10.99
2.62
-6.79
-17.04
-27.96
-39.49
-51.69
-64.48
-77.26
-88.73
-96.96
-99.88
-95.99
-84.97
-67.96
-47.24
-25.52
-5.23
12.02
25.57
35.50
42.22
46.20
47.77
47.20
44.79
41.01
36.51
32.07
28.38
25.83
24.36
23.50
22.65
21.28
19.15
16.31
12.98
9.28
5.18
0.52
-4.85
-10.96
-17.79
-25.38
-33.89
-43.48
-53.96
-64.41
-73.11
-77.80
-76.49
-68.19
-53.35
-33.82
-12.22
8.86
27.54
42.82
54.47
62.64
67.50
69.15
67.71
63.55
57.38
50.27
43.36
37.60
33.45
30.77
28.96
27.26
25.02
21.93
18.05
13.64
9.00
4.30
-0.52
-5.71
-11.66
-18.74
-27.27
-37.33
-48.62
-60.34
-71.10
-79.10
-82.39
-79.45
-69.66
-53.67
-33.29
-11.05
10.40
29.00
43.59
53.90
60.24
63.12
63.05
60.42
55.70
49.51
42.74
36.34
31.10
27.45
25.28
24.05
23.04
21.58
19.31
16.14
12.30
8.04
3.56
-1.12
-6.18
-11.87
-18.47
-26.18
-35.04
-44.82
-54.92
-64.24
-71.21
-74.03
-71.13
-61.74
-46.26
-26.36
-4.53
16.53
34.62
48.46
57.72
62.70
64.02
62.34
58.23
52.30
45.27
37.96
31.25
25.88
22.26
20.32
19.52
19.05
18.08
16.11
13.02
9.07
4.63
0.00
-4.83
-10.07
-16.04
-23.02
-31.19
-40.63
-51.26
-62.72
-74.13
-84.03
-90.48
-91.55
-85.92
-73.36
-54.99
-32.95
-9.90
11.73
30.17
44.49
54.48
60.37
62.57
61.64
58.20
53.03
46.99
40.98
35.74
31.72
28.98
27.28
26.10
24.87
23.10
20.44
16.83
12.36
7.34
2.05
-3.32
-8.79
-14.61
-21.19
-29.03
-38.49
-49.62
-61.87
-74.02
-84.18
-90.19
-90.15
-82.96
-68.81
-49.17
-26.44
-3.39
17.59
34.88
47.79
56.41
61.30
63.12
62.52
60.01
56.05
51.18
45.98
41.10
37.09
34.25
32.51
31.48
30.62
29.37
27.36
24.45
20.67
16.12
10.88
4.96
-1.60
-8.70
-16.26
-24.19
-32.66
-41.92
-52.14
-63.00
-73.35
-81.25
-84.42
-81.00
-70.35
-53.36
-32.23
-9.86
11.07
28.66
41.96
50.92
55.96
57.73
56.96
54.33
50.50
46.03
41.40
37.00
33.16
30.10
27.95
26.56
25.58
24.49
22.79
20.16
16.56
12.14
7.14
1.76
-3.92
-9.86
-16.05
-22.55
-29.51
-37.24
-46.06
-56.04
-66.60
-76.41
-83.45
-85.56
-81.16
-69.83
-52.58
-31.56
-9.52
11.00
28.17
41.09
49.69
54.40
55.90
54.90
52.08
48.07
43.50
38.92
34.92
31.88
30.04
29.31
29.31
29.47
29.11
27.77
25.24
21.56
16.97
11.71
6.00
-0.06
-6.36
-12.84
-19.54
-26.70
-34.74
-44.09
-54.84
-66.36
-77.12
-84.97
-87.63
-83.54
-72.40
-55.38
-34.80
-13.44
6.22
22.50
34.65
42.64
46.84
47.76
45.87
41.70
35.88
29.25
22.71
17.08
12.80
9.87
7.86
6.12
4.07
1.38
-2.02
-6.06
-10.64
-15.82
-21.65
-28.17
-35.28
-42.84
-50.73
-58.91
-67.39
-76.12
-84.90
-93.16
-99.90
-103.64
-102.60
-95.13
-80.28
-58.33
-31.03
-1.31
27.43
52.16
70.95
83.04
88.74
88.97
84.96
78.14
70.12
62.48
56.53
52.96
51.70
52.13
53.39
54.87
56.47
58.49
61.40
65.41
70.30
75.40
79.85
82.93
84.19
83.48
80.84
76.36
70.17
62.48
53.66
44.21
34.55
24.90
15.30
5.76
-3.45
-11.65
-17.90
-21.29
-21.41
-18.54
-13.59
-7.71
-1.96
2.94
6.59
8.83
9.65
9.22
7.83
5.81
3.46
0.84
-2.21
-5.92
-10.36
-15.25
-19.94
-23.71
-26.13
-27.29
-27.86
-28.79
-30.92
-34.61
-39.63
-45.31
-50.92
-55.98
-60.44
-64.63
-68.98
-73.82
-79.18
-84.71
-89.71
-93.12
-93.70
-90.19
-81.68
-68.02
-49.98
-29.25
-7.93
11.89
28.72
41.82
51.12
56.93
59.71
59.96
58.15
54.85
50.63
46.08
41.59
37.39
33.43
29.50
25.24
20.29
14.43
7.75
0.70
-6.05
-11.79
-16.14
-19.22
-21.64
-24.24
-27.88
-33.03
-39.71
-47.43
-55.27
-62.04
-66.41
-67.15
-63.39
-54.91
-42.32
-26.98
-10.69
4.72
17.90
28.11
35.33
39.94
42.48
43.46
43.24
42.12
40.41
38.44
36.49
34.71
33.06
31.35
29.37
26.92
23.88
20.20
15.84
10.78
5.05
-1.19
-7.65
-13.98
-19.90
-25.31
-30.42
-35.73
-41.85
-49.20
-57.65
-66.32
-73.56
-77.45
-76.30
-69.25
-56.59
-39.70
-20.61
-1.57
15.43
28.90
37.94
42.28
42.20
38.52
32.50
25.55
18.98
13.62
9.73
7.02
4.92
2.88
0.69
-1.47
-3.15
-3.96
-3.77
-2.88
-1.95
-1.80
-3.22
-6.74
-12.51
-20.07
-28.31
-35.53
-39.79
-39.54
-34.19
-24.38
-11.92
0.87
11.97
20.35
26.30
31.19
36.77
44.40
54.53
66.50
78.75
89.34
96.52
99.17
97.04
90.72
81.34
70.20
58.39
46.57
34.88
23.10
10.95
-1.64
-14.32
-26.40
-37.24
-46.47
-54.35
-61.67
-69.47
-78.53
-88.99
-100.15
-110.62
-118.57
-121.98
-119.15
-109.28
-93.20
-73.76
-55.51
-43.54
-41.74
-51.37
-70.29
-93.60
-115.09
-129.14
-132.13
-123.00
-102.96
-74.70
-41.43
-6.15
28.56
60.66
88.38
110.00
124.05
129.69
127.28
118.63
106.59
94.10
83.28
74.71
67.69
60.96
53.59
45.41
36.91
28.71
21.03
13.59
5.95
-2.08
-10.25
-18.17
-25.86
-34.12
-44.45
-58.30
-76.26
-97.52
-120.05
-141.19
-158.51
-170.17
-174.96
-172.12
-161.20
-142.22
-116.07
-84.73
-51.07
-18.26
10.99
35.08
53.58
67.01
76.28
82.27
85.56
86.47
85.26
82.29
78.22
73.81
69.86
66.94
65.27
64.76
65.02
65.48
65.46
64.34
61.64
57.18
51.12
43.93
36.17
28.35
20.71
13.21
5.52
-2.89
-12.62
-24.17
-37.57
-52.10
-66.01
-76.74
-81.51
-78.25
-66.42
-47.20
-23.26
2.17
26.15
46.68
62.82
74.47
81.95
85.74
86.37
84.51
80.96
76.60
72.19
68.23
64.93
62.19
59.80
57.60
55.51
53.60
51.88
50.21
48.21
45.38
41.23
35.53
28.40
20.33
11.97
3.93
-3.50
-10.44
-17.47
-25.44
-35.17
-47.03
-60.55
-74.18
-85.46
-91.63
-90.42
-80.92
-63.93
-41.77
-17.51
5.87
26.26
42.63
54.80
63.07
67.79
69.30
68.03
64.64
60.08
55.37
51.33
48.34
46.26
44.65
43.06
41.34
39.68
38.44
37.81
37.55
36.98
35.19
31.44
25.49
17.73
9.00
0.29
-7.70
-14.74
-21.11
-27.52
-34.75
-43.50
-54.07
-66.04
-78.15
-88.32
-94.09
-93.30
-84.85
-69.18
-48.22
-24.77
-1.71
18.78
35.52
48.25
57.19
62.70
65.08
64.60
61.67
56.99
51.49
46.17
41.79
38.74
36.94
36.00
35.45
34.92
34.22
33.27
31.96
29.99
26.99
22.57
16.54
9.07
0.62
-8.17
-16.62
-24.34
-31.30
-37.91
-44.91
-53.10
-62.92
-74.03
-85.10
-94.00
-98.32
-96.18
-86.87
-71.13
-50.98
-29.02
-7.75
11.00
26.32
37.95
46.00
50.62
52.01
50.53
46.92
42.20
37.51
33.70
31.07
29.41
28.20
26.97
25.61
24.27
23.18
22.26
21.08
18.93
15.18
9.57
2.39
-5.72
-13.95
-21.68
-28.67
-35.07
-41.35
-48.13
-55.96
-65.07
-75.08
-84.86
-92.61
-96.29
-94.27
-85.92
-71.83
-53.75
-33.93
-14.55
2.78
17.18
28.33
36.21
40.96
42.77
42.06
39.48
35.83
31.93
28.40
25.65
23.81
22.77
22.31
22.09
21.70
20.69
18.70
15.48
11.03
5.54
-0.66
-7.25
-14.03
-20.98
-28.28
-36.21
-45.08
-55.03
-65.83
-76.63
-86.00
-92.03
-92.86
-87.25
-75.11
-57.58
-36.88
-15.57
3.99
20.26
32.60
41.17
46.52
49.31
50.07
49.24
47.17
44.24
40.84
37.36
34.17
31.52
29.55
28.21
27.20
26.06
24.25
21.31
17.03
11.51
5.07
-1.88
-9.02
-16.23
-23.53
-31.13
-39.32
-48.41
-58.69
-70.13
-82.07
-93.08
-101.09
-103.88
-99.81
-88.49
-70.96
-49.46
-26.74
-5.30
13.13
27.79
38.67
46.20
50.97
53.54
54.36
53.84
52.31
50.06
47.39
44.60
41.96
39.67
37.83
36.32
34.85
32.96
30.19
26.18
20.81
14.17
6.54
-1.70
-10.21
-18.70
-27.00
-35.18
-43.52
-52.48
-62.48
-73.55
-84.94
-95.05
-101.66
-102.58
-96.45
-83.21
-64.25
-41.95
-18.98
2.40
20.73
35.43
46.52
54.26
59.00
61.05
60.85
58.96
56.14
53.13
50.49
48.43
46.78
45.20
43.44
41.48
39.55
37.84
36.28
34.38
31.37
26.49
19.43
10.42
0.25
-10.06
-19.67
-28.19
-35.78
-43.12
-51.10
-60.49
-71.49
-83.43
-94.69
-103.00
-106.01
-102.07
-90.79
-73.25
-51.59
-28.45
-6.13
13.78
30.53
43.95
54.16
61.30
65.56
67.20
66.72
64.82
62.31
59.85
57.83
56.18
54.54
52.50
49.82
46.62
43.28
40.26
37.71
35.34
32.46
28.29
22.34
14.56
5.47
-4.11
-13.35
-21.64
-28.77
-34.90
-40.52
-46.29
-52.94
-60.97
-70.40
-80.46
-89.55
-95.53
-96.27
-90.33
-77.46
-58.80
-36.45
-13.00
9.27
28.70
44.47
56.41
64.73
69.75
71.82
71.29
68.63
64.50
59.74
55.26
51.82
49.76
48.89
48.55
47.93
46.39
43.79
40.47
36.99
33.80
30.88
27.81
23.96
18.84
12.33
4.73
-3.37
-11.38
-18.89
-25.68
-31.75
-37.18
-42.24
-47.34
-53.07
-60.01
-68.44
-77.93
-87.09
-93.81
-95.67
-90.87
-78.82
-60.56
-38.39
-15.20
6.39
24.65
38.84
49.02
55.60
58.99
59.60
57.86
54.44
50.26
46.29
43.36
41.87
41.69
42.32
43.07
43.35
42.90
41.78
40.26
38.63
36.99
35.19
32.82
29.47
24.86
19.00
12.23
5.06
-2.00
-8.63
-14.76
-20.59
-26.41
-32.62
-39.62
-47.71
-57.03
-67.20
-77.19
-85.29
-89.41
-87.75
-79.36
-64.64
-45.26
-23.68
-2.46
16.38
31.69
43.14
50.90
55.38
57.07
56.47
54.20
51.00
47.66
44.92
43.24
42.73
43.13
43.90
44.42
44.13
42.81
40.51
37.53
34.26
30.91
27.44
23.55
18.82
12.95
5.98
-1.73
-9.58
-17.07
-23.91
-30.19
-36.19
-42.30
-48.87
-56.11
-64.08
-72.60
-81.13
-88.58
-93.43
-93.95
-88.78
-77.43
-60.58
-40.06
-18.30
2.29
19.87
33.44
42.79
48.15
50.02
48.99
45.74
41.16
36.21
31.84
28.72
27.07
26.69
27.04
27.55
27.79
27.53
26.77
25.51
23.67
21.00
17.16
11.91
5.22
-2.57
-10.84
-18.88
-26.16
-32.54
-38.35
-44.30
-51.19
-59.60
-69.50
-79.95
-89.22
-95.07
-95.41
-88.97
-75.81
-57.33
-35.84
-13.95
6.18
23.13
36.28
45.56
51.18
53.45
52.81
49.96
45.76
41.17
36.94
33.47
30.73
28.40
26.15
23.83
21.56
19.49
17.65
15.71
13.09
9.14
3.50
-3.75
-12.09
-20.73
-28.98
-36.45
-43.17
-49.57
-56.28
-63.98
-73.08
-83.48
-94.31
-103.93
-110.16
-110.81
-104.40
-90.65
-70.67
-46.70
-21.53
2.24
22.65
38.65
50.00
57.06
60.57
61.36
60.23
57.87
54.82
51.47
48.16
45.07
42.29
39.80
37.51
35.31
33.11
30.83
28.32
25.40
21.74
17.05
11.20
4.33
-3.12
-10.55
-17.39
-23.28
-28.24
-32.72
-37.46
-43.34
-50.91
-60.10
-69.83
-78.16
-82.69
-81.31
-72.96
-58.06
-38.39
-16.54
4.90
24.02
39.78
51.91
60.51
65.75
67.82
67.03
64.03
59.77
55.30
51.44
48.51
46.30
44.33
42.17
39.68
37.08
34.67
32.62
30.72
28.44
25.12
20.27
13.84
6.26
-1.67
-9.09
-15.41
-20.48
-24.72
-28.97
-34.16
-41.03
-49.83
-60.03
-70.32
-78.74
-83.08
-81.42
-72.80
-57.54
-37.26
-14.45
8.27
28.79
45.83
58.92
68.02
73.29
74.87
73.06
68.45
62.01
54.90
48.23
42.69
38.47
35.36
32.96
30.89
28.94
27.00
25.01
22.83
20.18
16.70
12.06
6.13
-0.96
-8.79
-16.71
-24.07
-30.44
-35.75
-40.40
-45.17
-50.96
-58.52
-67.99
-78.59
-88.58
-95.55
-97.04
-91.33
-78.12
-58.67
-35.47
-11.46
10.77
29.49
43.92
53.96
59.84
61.87
60.52
56.51
50.94
45.07
40.12
36.86
35.35
35.09
35.27
35.21
34.64
33.67
32.63
31.67
30.60
28.88
25.86
21.13
14.74
7.21
-0.65
-8.06
-14.57
-20.18
-25.36
-30.90
-37.59
-45.96
-55.95
-66.72
-76.60
-83.47
-85.19
-80.30
-68.45
-50.55
-28.53
-4.84
18.10
38.32
54.51
66.03
72.85
75.48
74.86
72.20
68.83
65.86
64.08
63.69
64.36
65.27
65.26
63.16
58.17
50.17
39.85
28.59
17.98
9.33
3.25
-0.32
-1.91
-2.14
-1.49
-0.25
1.33
2.86
3.77
3.41
1.25
-2.93
-8.83
-15.55
-21.59
-25.05
-24.17
-17.86
-6.23
9.30
26.40
42.54
55.86
65.49
71.52
74.49
74.81
72.54
67.47
59.55
49.26
37.71
26.33
16.45
8.82
3.48
-0.05
-2.47
-4.35
-5.99
-7.56
-9.19
-11.16
-13.87
-17.71
-22.75
-28.71
-34.91
-40.59
-45.19
-48.68
-51.63
-55.03
-59.95
-66.96
-75.77
-85.04
-92.62
-96.15
-93.76
-84.70
-69.61
-50.28
-29.14
-8.62
9.41
23.87
34.45
41.33
44.93
45.80
44.53
41.77
38.23
34.65
31.56
29.29
27.79
26.78
25.91
24.89
23.65
22.24
20.68
18.82
16.37
12.96
8.39
2.78
-3.46
-9.79
-15.72
-21.06
-25.91
-30.60
-35.60
-41.39
-48.32
-56.31
-64.73
-72.20
-76.88
-76.91
-71.15
-59.66
-43.81
-25.96
-8.71
5.87
16.73
23.82
27.73
29.19
28.71
26.51
22.65
17.37
11.25
5.12
-0.09
-3.79
-5.91
-6.92
-7.63
-8.75
-10.67
-13.35
-16.55
-20.05
-23.76
-27.66
-31.67
-35.47
-38.57
-40.54
-41.30
-41.27
-41.17
-41.71
-43.24
-45.52
-47.74
-48.79
-47.53
-43.10
-35.15
-23.87
-10.02
5.22
20.45
34.28
45.60
53.68
58.25
59.56
58.19
55.06
51.10
47.10
43.50
40.26
36.97
33.07
28.01
21.54
13.72
4.95
-4.23
-13.26
-21.77
-29.64
-37.02
-44.19
-51.47
-59.06
-67.03
-75.20
-83.29
-90.92
-97.80
-103.71
-108.58
-112.18
-113.97
-112.88
-107.47
-96.31
-78.68
-55.00
-27.02
2.55
30.72
54.90
73.37
85.35
90.81
90.22
84.48
74.77
62.56
49.44
36.85
25.90
17.16
10.64
5.87
2.07
-1.61
-5.94
-11.42
-18.22
-26.25
-35.19
-44.61
-54.08
-63.17
-71.48
-78.59
-84.10
-87.84
-89.97
-91.11
-92.01
-93.18
-94.37
-94.36
-91.24
-83.11
-68.85
-48.65
-24.02
2.72
29.20
53.59
74.82
92.40
106.18
116.11
122.27
124.98
124.88
122.89
120.04
117.23
115.04
113.69
113.09
113.00
113.15
113.23
112.91
111.82
109.59
105.89
100.63
93.94
86.16
77.74
68.97
59.91
50.30
39.73
27.75
14.29
-0.18
-14.54
-27.11
-36.13
-40.16
-38.58
-31.78
-21.10
-8.47
4.06
14.78
22.61
27.19
28.73
27.74
24.83
20.60
15.57
10.26
5.16
0.74
-2.71
-5.13
-6.72
-7.86
-8.89
-10.03
-11.29
-12.50
-13.46
-14.12
-14.60
-15.28
-16.61
-18.96
-22.50
-27.06
-32.33
-37.96
-43.81
-49.79
-55.76
-61.24
-65.34
-66.98
-65.14
-59.28
-49.51
-36.44
-21.05
-4.43
12.37
28.39
42.76
54.72
63.71
69.39
71.71
70.89
67.45
62.07
55.45
48.15
40.67
33.56
27.62
23.83
22.99
25.11
28.92
31.94
31.15
24.04
9.57
-11.55
-37.19
-64.70
-91.87
-117.46
-141.19
-163.41
-184.45
-204.04
-221.03
-233.43
-238.70
-234.51
-219.41
-193.36
-158.02
-116.38
-72.14
-28.96
10.19
43.40
69.78
89.25
102.27
109.60
112.18
111.17
107.89
103.75
99.96
97.31
95.93
95.35
94.74
93.25
90.38
86.12
80.83
75.02
69.08
63.11
56.99
50.42
43.09
34.63
24.62
12.73
-1.20
-16.78
-32.93
-47.93
-59.74
-66.56
-67.39
-62.33
-52.44
-39.38
-24.89
-10.36
3.28
15.47
25.78
33.79
39.13
41.62
41.44
39.18
35.74
32.01
28.71
26.20
24.49
23.31
22.29
21.01
19.13
16.40
12.72
8.18
2.95
-2.72
-8.61
-14.63
-20.79
-27.29
-34.50
-42.91
-52.92
-64.48
-76.72
-87.82
-95.19
-96.26
-89.32
-74.23
-52.66
-27.57
-2.39
19.97
37.74
50.43
58.50
62.85
64.35
63.69
61.35
57.78
53.52
49.16
45.29
42.31
40.33
39.15
38.37
37.51
36.13
33.92
30.76
26.70
21.90
16.58
10.97
5.15
-0.93
-7.43
-14.61
-22.78
-32.18
-42.78
-54.05
-64.73
-72.91
-76.41
-73.43
-63.27
-46.67
-25.75
-3.43
17.39
34.62
47.29
55.49
59.94
61.49
60.79
58.28
54.24
49.12
43.54
38.26
33.95
30.99
29.34
28.55
27.98
27.03
25.25
22.45
18.63
13.92
8.45
2.39
-4.14
-11.01
-18.15
-25.54
-33.36
-41.89
-51.41
-61.83
-72.45
-81.75
-87.65
-88.07
-81.62
-68.22
-49.24
-27.13
-4.79
15.24
31.28
42.70
49.68
52.94
53.39
51.83
48.98
45.40
41.58
37.94
34.81
32.42
30.83
29.93
29.45
29.03
28.27
26.81
24.35
20.67
15.73
9.61
2.60
-4.90
-12.45
-19.71
-26.58
-33.28
-40.34
-48.37
-57.72
-68.07
-78.14
-85.89
-88.96
-85.53
-74.98
-58.27
-37.62
-15.87
4.36
21.20
33.81
42.17
46.73
48.14
47.08
44.21
40.24
35.84
31.60
27.94
25.03
22.89
21.38
20.33
19.60
19.06
18.52
17.71
16.21
13.62
9.61
4.18
-2.45
-9.77
-17.22
-24.36
-30.99
-37.36
-44.01
-51.63
-60.58
-70.48
-79.99
-86.96
-89.07
-84.58
-73.09
-55.72
-34.80
-13.14
6.77
23.27
35.62
43.80
48.20
49.36
47.91
44.55
40.11
35.39
31.11
27.73
25.38
23.93
23.03
22.34
21.60
20.65
19.40
17.70
15.30
11.91
7.35
1.61
-5.00
-12.00
-18.94
-25.59
-32.08
-38.84
-46.42
-55.20
-65.10
-75.34
-84.45
-90.47
-91.39
-85.73
-73.13
-54.58
-32.30
-9.16
12.11
29.52
42.15
50.04
53.85
54.45
52.65
49.22
44.84
40.20
35.93
32.46
30.01
28.49
27.67
27.26
26.94
26.40
25.26
23.15
19.76
14.96
8.87
1.91
-5.38
-12.47
-19.00
-24.87
-30.30
-35.74
-41.78
-48.88
-57.07
-65.62
-73.04
-77.29
-76.34
-68.82
-54.57
-34.79
-11.71
11.98
33.85
52.16
66.05
75.39
80.58
82.29
81.24
78.17
73.71
68.39
62.56
56.42
50.02
43.33
36.26
28.66
20.37
11.16
0.84
-10.57
-22.79
-35.17
-46.84
-56.98
-64.98
-70.64
-74.08
-75.61
-75.73
-75.06
-74.53
-75.17
-77.84
-82.49
-87.70
-90.60
-87.58
-75.49
-53.01
-21.40
15.75
53.60
87.65
114.88
134.17
145.90
151.19
151.23
147.12
139.99
131.24
122.41
114.77
108.75
103.69
98.00
89.86
77.97
62.11
43.17
22.78
2.70
-15.71
-31.78
-45.45
-56.99
-66.72
-74.82
-81.38
-86.55
-90.85
-95.11
-100.13
-106.18
-112.47
-117.04
-117.35
-111.17
-97.71
-78.05
-54.87
-31.53
-10.91
5.38
17.10
24.92
29.73
32.17
32.48
30.79
27.39
22.96
18.36
14.45
11.70
10.12
9.20
8.24
6.56
3.82
0.02
-4.50
-9.32
-14.14
-18.89
-23.76
-28.99
-34.75
-41.11
-48.02
-55.49
-63.52
-71.95
-80.17
-86.91
-90.35
-88.57
-80.27
-65.35
-45.18
-22.19
0.80
21.42
38.28
50.95
59.64
64.83
66.89
66.17
63.10
58.43
53.19
48.51
45.29
43.92
44.19
45.36
46.50
46.74
45.52
42.65
38.24
32.58
26.00
18.79
11.26
3.60
-4.06
-11.83
-20.02
-29.03
-39.14
-50.13
-61.00
-70.06
-75.23
-74.72
-67.70
-54.57
-36.98
-17.29
2.12
19.38
33.38
43.68
50.19
52.97
52.16
48.05
41.30
32.98
24.43
16.98
11.62
8.68
7.80
8.11
8.56
8.31
7.01
4.83
2.20
-0.44
-2.92
-5.48
-8.65
-13.07
-19.31
-27.66
-38.04
-49.83
-61.80
-72.12
-78.61
-79.22
-72.64
-58.81
-39.03
-15.79
7.95
29.49
46.92
59.41
66.99
70.22
69.79
66.35
60.48
52.91
44.57
36.56
29.96
25.43
23.03
22.17
21.83
20.91
18.65
14.82
9.68
3.79
-2.30
-8.28
-14.22
-20.44
-27.41
-35.56
-45.20
-56.39
-68.77
-81.41
-92.67
-100.39
-102.27
-96.63
-82.97
-62.36
-37.22
-10.64
14.38
35.72
52.37
64.34
72.20
76.69
78.37
77.65
74.82
70.33
64.80
58.97
53.58
49.10
45.64
42.98
40.64
38.17
35.19
31.51
27.03
21.71
15.50
8.45
0.67
-7.61
-16.21
-25.14
-34.65
-45.08
-56.48
-68.17
-78.54
-85.26
-85.97
-79.07
-64.44
-43.51
-18.85
6.59
30.25
50.45
66.38
77.94
85.39
89.19
89.86
87.98
84.24
79.34
73.95
68.66
63.91
59.92
56.65
53.90
51.34
48.72
45.92
42.94
39.78
36.25
31.95
26.37
19.11
10.18
0.08
-10.26
-19.84
-27.95
-34.44
-39.80
-45.01
-51.21
-59.33
-69.65
-81.50
-93.16
-102.11
-105.68
-101.84
-89.91
-70.87
-47.08
-21.60
2.71
23.80
40.72
53.42
62.45
68.50
72.20
74.02
74.26
73.17
71.00
68.07
64.73
61.30
58.04
55.08
52.42
49.96
47.54
45.03
42.31
39.34
36.11
32.63
28.80
24.47
19.37
13.26
6.08
-1.96
-10.42
-18.76
-26.57
-33.63
-40.05
-46.17
-52.45
-59.42
-67.49
-76.80
-86.97
-96.90
-104.82
-108.59
-106.31
-96.97
-80.89
-59.75
-36.14
-12.82
7.98
24.96
37.78
46.77
52.54
55.68
56.73
56.18
54.54
52.33
50.00
47.87
46.11
44.73
43.66
42.80
41.97
40.92
39.36
37.05
33.84
29.73
24.86
19.32
13.18
6.40
-1.04
-9.08
-17.47
-25.77
-33.50
-40.30
-46.01
-50.77
-54.97
-59.16
-63.93
-69.84
-77.17
-85.79
-94.92
-102.99
-107.88
-107.47
-100.30
-86.23
-66.58
-43.85
-20.85
0.06
17.50
31.12
41.30
48.56
53.29
55.65
55.74
53.83
50.49
46.53
42.82
39.91
37.98
36.75
35.73
34.47
32.73
30.54
28.09
25.56
22.97
20.14
16.80
12.64
7.50
1.38
-5.42
-12.48
-19.26
-25.36
-30.63
-35.20
-39.51
-44.07
-49.32
-55.55
-62.83
-71.00
-79.54
-87.44
-93.20
-95.05
-91.43
-81.67
-66.30
-47.16
-26.78
-7.67
8.40
20.70
29.45
35.30
38.96
40.88
41.23
40.20
38.09
35.44
32.87
30.91
29.79
29.43
29.46
29.43
29.01
28.09
26.78
25.21
23.49
21.51
19.03
15.76
11.47
6.20
0.19
-6.14
-12.34
-18.14
-23.41
-28.28
-32.96
-37.76
-43.00
-49.03
-56.18
-64.55
-73.81
-82.94
-90.31
-93.98
-92.22
-84.20
-70.38
-52.39
-32.62
-13.45
3.35
16.91
27.10
34.21
38.66
40.74
40.71
38.93
36.00
32.67
29.82
28.09
27.81
28.86
30.71
32.67
34.11
34.67
34.32
33.27
31.76
29.87
27.39
23.91
19.09
12.81
5.35
-2.73
-10.73
-18.13
-24.66
-30.45
-35.87
-41.42
-47.59
-54.69
-62.83
-71.70
-80.55
-88.05
-92.52
-92.24
-86.04
-73.77
-56.51
-36.37
-15.88
2.77
18.22
30.10
38.67
44.45
47.85
49.10
48.41
46.26
43.37
40.68
38.99
38.65
39.50
40.94
42.21
42.77
42.37
41.14
39.33
37.17
34.63
31.51
27.46
22.26
15.90
8.72
1.22
-6.02
-12.55
-18.24
-23.28
-28.20
-33.75
-40.63
-49.28
-59.53
-70.43
-80.29
-87.01
-88.65
-83.98
-72.88
-56.35
-36.25
-14.82
5.78
23.83
38.20
48.36
54.32
56.53
55.75
52.89
48.93
44.73
40.98
38.10
36.25
35.38
35.26
35.57
36.02
36.39
36.51
36.24
35.32
33.43
30.22
25.45
19.12
11.55
3.30
-4.91
-12.45
-18.94
-24.33
-28.98
-33.56
-38.95
-45.90
-54.69
-64.75
-74.56
-81.84
-84.21
-79.90
-68.49
-51.08
-29.95
-7.89
12.65
30.00
43.41
52.80
58.35
60.34
59.17
55.49
50.26
44.75
40.18
37.35
36.42
36.91
38.02
38.92
39.15
38.67
37.70
36.48
34.99
32.95
29.86
25.33
19.21
11.76
3.57
-4.62
-12.21
-18.91
-24.81
-30.42
-36.44
-43.60
-52.34
-62.56
-73.42
-83.29
-90.03
-91.47
-86.08
-73.52
-54.83
-32.27
-8.68
13.18
31.30
44.60
52.98
56.94
57.32
55.10
51.24
46.68
42.26
38.67
36.30
35.22
35.18
35.72
36.33
36.60
36.29
35.36
33.83
31.70
28.78
24.79
19.45
12.72
4.87
-3.42
-11.38
-18.38
-24.24
-29.44
-34.88
-41.65
-50.44
-61.13
-72.54
-82.49
-88.36
-87.79
-79.54
-63.94
-42.88
-19.24
3.96
24.27
40.29
51.54
58.18
60.67
59.57
55.69
50.11
44.20
39.25
36.16
35.14
35.67
36.86
37.83
38.08
37.60
36.65
35.42
33.78
31.22
27.18
21.31
13.78
5.25
-3.41
-11.45
-18.50
-24.69
-30.54
-36.73
-43.97
-52.69
-62.82
-73.57
-83.33
-89.85
-90.79
-84.51
-70.64
-50.45
-26.50
-1.93
20.32
38.22
50.91
58.47
61.65
61.40
58.74
54.57
49.79
45.16
41.31
38.63
37.20
36.81
37.04
37.44
37.54
36.96
35.35
32.45
28.05
22.13
14.90
6.77
-1.69
-9.88
-17.32
-23.76
-29.30
-34.41
-39.91
-46.70
-55.32
-65.52
-75.89
-84.01
-87.08
-82.84
-70.43
-50.90
-26.87
-1.79
21.13
39.71
53.06
61.37
65.42
66.11
64.28
60.72
56.22
51.61
47.62
44.71
42.97
42.17
41.92
41.82
41.63
41.21
40.48
39.26
37.25
34.08
29.50
23.48
16.34
8.71
1.24
-5.56
-11.61
-17.34
-23.54
-31.09
-40.44
-51.26
-62.22
-71.15
-75.60
-73.53
-64.10
-47.93
-27.02
-4.10
17.98
36.98
51.49
60.98
65.52
65.62
62.06
55.79
47.90
39.52
31.60
24.85
19.60
15.87
13.42
11.85
10.66
9.37
7.59
4.99
1.45
-3.08
-8.49
-14.55
-21.00
-27.56
-34.04
-40.45
-47.00
-54.10
-62.28
-71.84
-82.59
-93.60
-103.10
-108.83
-108.63
-101.15
-86.35
-65.69
-41.69
-17.36
4.65
22.48
35.25
42.93
45.98
45.14
41.22
35.17
27.96
20.68
14.32
9.71
7.33
7.17
8.75
11.19
13.45
14.58
13.98
11.47
7.31
2.02
-3.89
-10.03
-16.25
-22.68
-29.60
-37.45
-46.67
-57.41
-69.29
-81.06
-90.64
-95.49
-93.39
-83.25
-65.63
-42.66
-17.48
6.75
27.61
43.88
55.41
62.79
66.80
68.11
67.20
64.46
60.30
55.28
50.07
45.34
41.55
38.93
37.36
36.47
35.70
34.43
32.13
28.46
23.33
16.98
9.78
2.18
-5.46
-13.03
-20.63
-28.61
-37.45
-47.47
-58.60
-70.00
-79.94
-86.08
-86.08
-78.42
-63.06
-41.59
-16.85
7.92
29.92
47.41
59.86
67.66
71.71
73.01
72.39
70.47
67.68
64.36
60.73
57.00
53.37
50.01
47.04
44.50
42.30
40.13
37.55
34.06
29.27
23.04
15.55
7.24
-1.30
-9.58
-17.34
-24.61
-31.74
-39.33
-48.02
-58.15
-69.38
-80.45
-89.18
-93.04
-89.92
-78.89
-60.69
-37.62
-12.80
10.73
30.76
46.27
57.16
63.92
67.16
67.44
65.32
61.53
56.97
52.60
49.14
46.90
45.62
44.71
43.49
41.50
38.69
35.37
31.96
28.80
25.88
22.80
18.95
13.71
6.85
-1.39
-10.31
-19.01
-26.74
-33.23
-38.75
-44.01
-49.92
-57.26
-66.46
-77.27
-88.60
-98.51
-104.52
-104.27
-96.28
-80.60
-58.87
-33.93
-8.95
13.44
31.76
45.61
55.30
61.43
64.46
64.75
62.74
59.05
54.59
50.34
47.12
45.29
44.74
44.95
45.25
45.09
44.16
42.43
40.05
37.28
34.26
31.01
27.41
23.19
18.08
11.89
4.63
-3.44
-11.81
-19.95
-27.43
-34.08
-40.09
-45.97
-52.37
-59.93
-68.98
-79.33
-90.04
-99.50
-105.57
-106.16
-99.80
-86.21
-66.53
-43.04
-18.63
4.05
23.17
37.91
48.37
55.06
58.63
59.62
58.51
55.91
52.60
49.43
47.15
46.16
46.40
47.44
48.68
49.54
49.62
48.69
46.71
43.72
39.80
35.08
29.73
23.86
17.57
10.85
3.72
-3.79
-11.45
-18.90
-25.74
-31.69
-36.82
-41.59
-46.72
-53.00
-60.94
-70.57
-81.22
-91.53
-99.63
-103.47
-101.32
-92.23
-76.44
-55.37
-31.39
-7.23
14.73
32.81
46.30
55.27
60.22
61.83
60.81
57.85
53.75
49.35
45.52
42.89
41.70
41.70
42.30
42.77
42.54
41.36
39.30
36.62
33.55
30.12
26.12
21.21
15.08
7.63
-0.92
-10.06
-19.13
-27.43
-34.48
-40.17
-44.79
-48.97
-53.55
-59.29
-66.51
-74.85
-83.10
-89.40
-91.65
-88.21
-78.41
-62.86
-43.30
-22.04
-1.38
16.90
31.71
42.56
49.30
52.07
51.25
47.59
42.23
36.53
31.74
28.66
27.42
27.51
28.08
28.30
27.73
26.33
24.42
22.40
20.43
18.37
15.76
12.11
7.10
0.79
-6.35
-13.65
-20.43
-26.31
-31.31
-35.89
-40.79
-46.81
-54.57
-64.17
-75.00
-85.60
-93.86
-97.46
-94.53
-84.34
-67.56
-46.20
-22.96
-0.54
19.01
34.60
45.97
53.38
57.24
58.09
56.47
53.13
48.99
44.99
41.91
40.11
39.43
39.35
39.19
38.43
36.95
34.94
32.76
30.60
28.34
25.51
21.49
15.83
8.53
0.08
-8.70
-16.94
-24.10
-30.11
-35.42
-40.84
-47.28
-55.48
-65.61
-77.04
-88.22
-96.84
-100.43
-97.05
-86.03
-68.25
-45.90
-21.88
1.01
20.71
36.15
47.06
53.73
56.66
56.51
54.04
50.19
46.02
42.46
40.18
39.36
39.75
40.75
41.66
41.92
41.29
39.80
37.73
35.35
32.70
29.64
25.77
20.71
14.30
6.68
-1.65
-10.00
-17.72
-24.47
-30.30
-35.69
-41.43
-48.41
-57.20
-67.70
-78.86
-88.69
-94.74
-94.76
-87.48
-73.15
-53.43
-30.91
-8.34
12.10
29.13
42.30
51.69
57.54
60.11
59.75
57.03
52.83
48.28
44.44
42.02
41.16
41.44
42.11
42.39
41.79
40.21
37.89
35.22
32.44
29.51
26.12
21.77
16.12
9.11
1.08
-7.39
-15.66
-23.25
-30.03
-36.12
-41.88
-47.84
-54.62
-62.77
-72.50
-83.32
-93.76
-101.56
-104.15
-99.54
-87.10
-67.91
-44.44
-19.78
3.28
22.92
38.39
49.70
57.13
60.97
61.44
58.99
54.45
49.01
44.01
40.50
38.89
38.85
39.54
40.03
39.73
38.55
36.87
35.22
33.88
32.70
31.09
28.28
23.64
17.00
8.78
-0.15
-8.81
-16.47
-22.85
-28.24
-33.30
-38.79
-45.32
-53.21
-62.38
-72.17
-81.29
-87.88
-89.86
-85.48
-73.99
-56.01
-33.56
-9.46
13.45
33.04
48.22
58.84
65.28
68.09
67.73
64.80
60.04
54.47
49.20
45.12
42.59
41.34
40.66
39.71
37.94
35.26
32.04
28.82
25.94
23.38
20.66
17.07
11.98
5.16
-3.11
-12.09
-20.87
-28.65
-35.12
-40.50
-45.50
-51.07
-58.06
-66.83
-76.94
-87.05
-95.04
-98.56
-95.67
-85.53
-68.69
-47.03
-23.22
0.00
20.43
36.66
48.05
54.59
56.65
54.90
50.30
44.01
37.30
31.25
26.63
23.72
22.33
21.94
21.93
21.80
21.27
20.21
18.58
16.23
12.90
8.31
2.34
-4.86
-12.84
-20.99
-28.73
-35.78
-42.13
-48.17
-54.50
-61.84
-70.76
-81.31
-92.69
-103.14
-110.14
-111.12
-104.34
-89.59
-68.36
-43.45
-18.11
4.85
23.68
37.76
47.30
52.95
55.43
55.39
53.47
50.33
46.70
43.25
40.50
38.67
37.67
37.13
36.71
36.09
35.15
33.84
32.04
29.49
25.80
20.61
13.79
5.65
-3.16
-11.84
-19.77
-26.84
-33.58
-40.97
-50.04
-61.24
-73.93
-86.26
-95.46
-98.71
-94.04
-81.10
-61.29
-37.30
-12.26
11.11
30.97
46.49
57.57
64.45
67.58
67.56
65.18
61.44
57.34
53.66
50.83
48.82
47.34
46.04
44.70
43.33
42.02
40.80
39.44
37.41
34.08
28.91
21.80
13.16
3.78
-5.44
-13.82
-21.20
-27.93
-34.83
-42.84
-52.64
-64.21
-76.56
-87.70
-95.04
-96.04
-89.15
-74.27
-52.95
-27.91
-2.32
21.05
40.32
54.61
63.87
68.56
69.39
67.25
63.15
58.21
53.45
49.63
47.09
45.71
45.05
44.60
43.99
43.11
42.01
40.75
39.17
36.91
33.43
28.30
21.35
12.84
3.35
-6.34
-15.49
-23.63
-30.72
-37.18
-43.81
-51.57
-61.19
-72.76
-85.29
-96.73
-104.27
-105.16
-97.65
-81.62
-58.84
-32.33
-5.54
18.66
38.52
53.42
63.51
69.24
71.07
69.48
65.20
59.39
53.46
48.76
46.10
45.48
46.14
46.96
46.98
45.81
43.69
41.22
38.90
36.72
34.13
30.26
24.39
16.42
6.95
-2.90
-12.03
-19.74
-26.08
-31.72
-37.66
-44.86
-53.99
-65.15
-77.73
-90.30
-100.62
-106.08
-104.26
-93.86
-75.21
-50.38
-22.64
4.53
28.29
47.05
60.38
68.71
72.75
73.25
70.95
66.69
61.56
56.79
53.49
52.27
53.11
55.24
57.55
58.97
58.95
57.59
55.43
53.12
50.91
48.51
45.22
40.30
33.40
24.80
15.35
6.03
-2.38
-9.71
-16.40
-23.35
-31.61
-41.97
-54.70
-69.24
-84.10
-96.93
-105.02
-105.98
-98.55
-83.05
-61.44
-36.77
-12.31
9.21
26.11
37.77
44.36
46.49
44.90
40.46
34.12
26.96
20.09
14.52
10.95
9.64
10.40
12.66
15.64
18.53
20.60
21.29
20.19
17.16
12.25
5.74
-1.87
-10.02
-18.23
-26.14
-33.73
-41.30
-49.40
-58.64
-69.22
-80.56
-91.03
-98.18
-99.41
-92.86
-78.15
-56.67
-31.15
-4.92
19.06
38.75
53.21
62.40
66.81
67.21
64.54
59.83
54.08
48.23
42.95
38.62
35.37
33.12
31.71
30.92
30.42
29.75
28.32
25.53
20.90
14.25
5.79
-3.88
-13.96
-23.65
-32.45
-40.26
-47.52
-55.03
-63.76
-74.45
-87.16
-100.78
-113.09
-121.03
-121.55
-112.67
-94.24
-68.13
-37.78
-7.18
20.20
42.11
57.80
67.66
72.75
74.24
73.18
70.38
66.49
62.14
57.85
54.08
51.06
48.76
46.98
45.40
43.75
41.84
39.52
36.54
32.57
27.27
20.41
12.11
2.79
-6.88
-16.28
-25.00
-33.11
-41.09
-49.81
-60.11
-72.33
-85.82
-98.66
-107.93
-110.48
-104.03
-88.09
-64.25
-35.73
-6.33
20.62
43.01
60.00
71.70
78.61
81.38
80.73
77.50
72.72
67.44
62.53
58.43
55.18
52.53
50.15
47.84
45.58
43.46
41.44
39.29
36.46
32.29
26.17
17.88
7.74
-3.43
-14.52
-24.56
-33.06
-40.30
-47.23
-55.24
-65.53
-78.46
-93.07
-107.00
-116.96
-119.64
-112.87
-96.33
-71.80
-42.59
-12.51
15.12
38.17
55.74
67.84
74.90
77.50
76.30
72.23
66.53
60.59
55.68
52.48
50.96
50.47
50.10
49.15
47.39
45.05
42.57
40.19
37.76
34.71
30.29
23.92
15.52
5.50
-5.29
-15.84
-25.35
-33.38
-40.11
-46.21
-52.73
-60.84
-71.34
-84.20
-98.18
-110.75
-118.63
-118.67
-109.00
-89.78
-63.27
-33.15
-3.35
23.05
44.38
60.24
70.99
77.12
79.02
77.11
72.08
65.17
57.98
52.09
48.57
47.58
48.38
49.70
50.27
49.35
46.94
43.65
40.26
37.22
34.33
30.85
25.85
18.73
9.62
-0.64
-10.88
-20.05
-27.67
-33.93
-39.54
-45.42
-52.47
-61.29
-72.08
-84.43
-97.07
-107.83
-113.96
-112.81
-102.73
-83.81
-57.95
-28.47
0.96
27.22
48.44
64.02
74.26
79.83
81.46
79.83
75.78
70.39
64.95
60.63
58.12
57.34
57.47
57.29
55.77
52.45
47.61
42.05
36.60
31.67
27.07
22.08
15.89
8.02
-1.40
-11.64
-21.64
-30.46
-37.58
-43.15
-47.86
-52.74
-58.86
-66.98
-77.28
-89.09
-100.82
-110.08
-114.23
-111.04
-99.50
-80.16
-55.12
-27.44
-0.33
23.59
42.66
56.19
64.13
66.89
65.19
60.11
53.10
45.78
39.61
35.50
33.57
33.23
33.49
33.42
32.51
30.77
28.54
26.16
23.67
20.65
16.42
10.39
2.37
-7.20
-17.41
-27.20
-35.80
-43.00
-49.18
-55.20
-62.10
-70.82
-81.82
-94.74
-108.13
-119.53
-125.87
-124.45
-113.79
-94.29
-68.24
-39.09
-10.47
14.74
34.91
49.60
59.16
64.30
65.79
64.43
61.06
56.65
52.16
48.42
45.90
44.58
44.02
43.63
42.90
41.64
39.96
38.01
35.74
32.74
28.35
21.93
13.33
2.97
-8.18
-18.97
-28.55
-36.70
-43.93
-51.24
-59.78
-70.30
-82.69
-95.76
-107.30
-114.56
-114.98
-106.98
-90.55
-67.33
-40.18
-12.40
13.09
34.36
50.57
61.79
68.53
71.47
71.35
68.97
65.23
61.11
57.43
54.70
52.95
51.86
50.93
49.81
48.39
46.78
45.11
43.27
40.82
37.17
31.80
24.57
15.85
6.45
-2.74
-10.95
-17.84
-23.62
-28.97
-34.85
-42.21
-51.58
-62.66
-74.06
-83.35
-87.62
-84.34
-72.26
-51.97
-25.86
2.59
29.82
53.02
70.64
82.29
88.33
89.49
86.56
80.43
72.15
62.91
53.88
45.99
39.66
34.82
31.04
27.73
24.51
21.19
17.75
14.18
10.30
5.75
0.15
-6.72
-14.76
-23.43
-31.96
-39.55
-45.70
-50.38
-54.11
-57.88
-62.73
-69.33
-77.44
-85.75
-92.00
-93.61
-88.58
-76.19
-57.35
-34.34
-10.11
12.53
31.47
45.53
54.32
58.01
57.13
52.54
45.41
37.11
29.03
22.30
17.57
14.97
14.16
14.50
15.34
16.07
16.29
15.68
13.94
10.80
5.99
-0.54
-8.57
-17.59
-26.87
-35.76
-43.93
-51.57
-59.38
-68.24
-78.85
-91.10
-103.77
-114.61
-120.81
-119.86
-110.42
-92.82
-69.03
-42.08
-15.20
9.00
28.91
44.01
54.49
60.93
63.95
64.20
62.27
58.86
54.68
50.41
46.61
43.62
41.52
40.16
39.19
38.20
36.71
34.27
30.51
25.20
18.36
10.26
1.39
-7.68
-16.53
-24.97
-33.20
-41.76
-51.39
-62.68
-75.64
-89.29
-101.55
-109.58
-110.59
-102.76
-86.00
-62.07
-34.12
-5.73
20.07
41.38
57.54
68.80
75.92
79.71
80.93
80.17
77.98
74.80
71.00
66.93
62.87
59.03
55.55
52.45
49.56
46.57
43.11
38.82
33.46
26.98
19.50
11.24
2.51
-6.44
-15.42
-24.39
-33.58
-43.46
-54.58
-67.26
-81.15
-94.85
-105.99
-111.66
-109.32
-97.77
-77.68
-51.60
-23.10
4.29
28.03
46.94
61.07
71.07
77.58
81.02
81.62
79.75
76.17
71.91
68.00
65.03
62.97
61.26
59.25
56.55
53.29
49.91
46.77
43.79
40.34
35.52
28.65
19.63
9.07
-1.98
-12.48
-21.83
-30.10
-37.91
-46.25
-56.10
-68.09
-82.09
-96.90
-110.21
-118.96
-120.14
-111.86
-94.08
-68.78
-39.43
-9.83
16.87
38.87
55.68
67.69
75.49
79.61
80.46
78.56
74.76
70.17
65.95
62.83
60.97
59.89
58.85
57.19
54.66
51.48
48.16
45.06
42.13
38.82
34.32
27.95
19.49
9.36
-1.53
-12.13
-21.63
-29.74
-36.68
-43.11
-49.89
-57.91
-67.80
-79.68
-92.80
-105.37
-114.73
-117.98
-112.89
-98.72
-76.64
-49.41
-20.54
6.71
30.13
48.68
62.29
71.29
76.11
77.16
75.04
70.67
65.30
60.29
56.64
54.79
54.38
54.59
54.43
53.24
50.82
47.48
43.76
40.04
36.39
32.40
27.46
21.02
12.92
3.54
-6.37
-15.90
-24.42
-31.76
-38.26
-44.60
-51.60
-59.95
-70.09
-81.96
-94.74
-106.71
-115.40
-118.09
-112.67
-98.47
-76.63
-49.87
-21.67
4.72
27.04
44.27
56.39
63.84
67.19
66.98
63.87
58.85
53.17
48.15
44.80
43.47
43.77
44.75
45.34
44.77
42.84
39.94
36.73
33.73
30.96
27.89
23.71
17.78
9.98
0.88
-8.43
-16.86
-23.76
-29.21
-33.89
-38.83
-44.96
-52.91
-62.91
-74.66
-87.22
-98.89
-107.29
-109.94
-104.91
-91.59
-71.08
-45.91
-19.32
5.73
27.14
43.91
55.86
63.19
66.22
65.42
61.56
55.88
49.89
44.97
41.95
40.88
41.07
41.49
41.30
40.16
38.29
36.15
34.07
31.99
29.39
25.58
20.00
12.58
3.75
-5.63
-14.63
-22.52
-29.04
-34.40
-39.27
-44.57
-51.21
-59.79
-70.24
-81.46
-91.42
-97.43
-96.96
-88.42
-71.79
-48.72
-22.07
4.90
29.36
49.45
64.32
73.95
78.74
79.34
76.56
71.46
65.31
59.42
54.86
52.16
51.20
51.29
51.55
51.25
50.07
48.08
45.60
42.82
39.68
35.78
30.63
23.89
15.65
6.41
-3.01
-11.83
-19.60
-26.36
-32.67
-39.35
-47.24
-56.81
-67.85
-79.22
-88.98
-94.69
-94.12
-85.94
-70.26
-48.71
-23.98
0.87
23.18
41.15
53.95
61.51
64.15
62.44
57.17
49.31
40.10
30.83
22.65
16.36
12.25
10.09
9.33
9.24
9.12
8.41
6.70
3.73
-0.57
-6.11
-12.65
-19.84
-27.33
-34.90
-42.54
-50.43
-58.93
-68.45
-79.22
-91.13
-103.38
-114.47
-122.38
-124.95
-120.65
-109.05
-91.17
-69.24
-46.08
-24.35
-6.00
7.97
17.30
22.21
23.06
20.36
14.78
7.33
-0.69
-7.90
-13.11
-15.62
-15.44
-13.14
-9.68
-6.10
-3.24
-1.58
-1.29
-2.36
-4.68
-8.14
-12.67
-18.16
-24.47
-31.46
-39.08
-47.26
-55.81
-64.10
-70.91
-74.56
-73.34
-66.08
-52.67
-34.23
-12.85
8.97
28.95
45.46
57.63
65.22
68.44
67.78
63.91
57.67
50.06
42.12
34.82
28.96
25.00
23.03
22.77
23.56
24.58
24.92
23.83
20.89
16.09
9.83
2.75
-4.51
-11.51
-18.22
-24.94
-32.27
-40.89
-51.30
-63.56
-76.95
-89.90
-100.12
-105.04
-102.52
-91.53
-72.57
-47.55
-19.36
8.98
34.90
56.68
73.46
85.08
91.80
94.24
93.23
89.77
84.86
79.39
74.00
69.05
64.70
60.99
57.94
55.53
53.69
52.22
50.70
48.48
44.84
39.14
31.08
20.82
9.01
-3.41
-15.46
-26.51
-36.48
-45.90
-55.77
-67.13
-80.54
-95.54
-110.34
-122.08
-127.51
-123.95
-110.29
-87.42
-58.03
-25.82
5.59
33.47
56.36
73.95
86.68
95.22
100.19
102.05
101.23
98.26
93.84
88.78
83.88
79.69
76.38
73.77
71.52
69.28
66.80
64.03
60.96
57.54
53.62
48.92
43.21
36.34
28.29
19.24
9.46
-0.63
-10.64
-20.24
-29.24
-37.70
-45.93
-54.48
-64.03
-75.26
-88.51
-103.45
-118.80
-132.23
-140.74
-141.45
-132.44
-113.47
-86.17
-53.60
-19.43
12.97
41.13
63.73
80.50
91.90
98.77
102.06
102.69
101.38
98.69
95.07
90.94
86.70
82.74
79.34
76.62
74.52
72.81
71.18
69.25
66.64
63.01
58.16
52.05
44.88
36.97
28.72
20.39
12.09
3.68
-5.04
-14.22
-23.80
-33.51
-42.92
-51.58
-59.27
-66.19
-72.99
-80.67
-90.22
-102.11
-115.77
-129.35
-139.94
-144.34
-140.02
-126.01
-103.25
-74.31
-42.63
-11.59
16.24
39.29
56.99
69.40
76.95
80.32
80.33
77.98
74.26
70.08
66.05
62.47
59.35
56.55
53.91
51.39
49.10
47.16
45.58
44.17
42.42
39.70
35.35
29.02
20.73
10.95
0.48
-9.81
-19.20
-27.40
-34.65
-41.66
-49.45
-58.95
-70.56
-83.70
-96.68
-106.90
-111.49
-108.20
-96.07
-75.88
-49.91
-21.30
6.69
31.47
51.44
66.00
75.29
79.87
80.55
78.22
73.82
68.29
62.43
56.80
51.62
46.85
42.41
38.29
34.65
31.68
29.38
27.41
25.14
21.82
16.96
10.43
2.57
-6.05
-14.85
-23.43
-31.65
-39.63
-47.73
-56.47
-66.34
-77.50
-89.41
-100.60
-108.76
-111.36
-106.35
-93.01
-72.29
-46.55
-18.94
7.45
30.26
48.18
60.86
68.66
72.35
72.85
71.09
67.88
63.85
59.39
54.72
49.96
45.24
40.78
36.79
33.46
30.75
28.37
25.85
22.58
18.06
12.01
4.48
-4.20
-13.49
-22.72
-31.32
-38.97
-45.83
-52.55
-60.14
-69.50
-80.87
-93.28
-104.54
-111.66
-111.80
-103.29
-86.27
-62.70
-35.73
-8.77
15.45
35.29
50.22
60.43
66.38
68.63
67.74
64.45
59.67
54.37
49.42
45.30
42.03
39.27
36.56
33.58
30.33
27.11
24.29
22.01
20.05
17.75
14.31
9.08
1.83
-7.04
-16.70
-26.14
-34.62
-41.88
-48.27
-54.63
-61.97
-71.11
-82.23
-94.55
-106.26
-114.80
-117.54
-112.57
-99.32
-78.90
-53.73
-26.88
-1.28
20.92
38.60
51.52
60.01
64.66
66.10
64.97
61.95
57.74
53.10
48.73
45.11
42.42
40.52
39.04
37.55
35.78
33.68
31.40
29.15
26.97
24.65
21.68
17.45
11.50
3.78
-5.31
-14.99
-24.39
-32.81
-40.00
-46.16
-51.92
-58.15
-65.73
-75.25
-86.74
-99.35
-111.28
-120.02
-122.91
-117.94
-104.51
-83.63
-57.77
-30.10
-3.67
19.26
37.48
50.72
59.30
63.78
64.78
62.94
59.00
53.81
48.29
43.36
39.71
37.73
37.36
38.18
39.49
40.52
40.68
39.69
37.58
34.60
30.98
26.78
21.88
16.03
9.05
1.02
-7.72
-16.65
-25.22
-33.06
-40.08
-46.43
-52.52
-58.93
-66.29
-75.15
-85.69
-97.34
-108.59
-117.17
-120.43
-116.21
-103.62
-83.43
-57.91
-30.16
-3.26
20.43
39.58
53.74
63.04
67.83
68.64
66.14
61.29
55.26
49.34
44.66
41.88
41.14
42.01
43.72
45.44
46.51
46.59
45.68
43.95
41.63
38.80
35.32
30.94
25.33
18.37
10.17
1.15
-8.11
-16.99
-25.09
-32.26
-38.75
-45.04
-51.81
-59.75
-69.35
-80.55
-92.50
-103.41
-110.84
-112.21
-105.63
-90.61
-68.29
-41.21
-12.65
14.30
37.33
55.22
67.68
75.03
77.81
76.70
72.51
66.24
59.11
52.41
47.25
44.26
43.50
44.42
46.13
47.74
48.53
48.25
46.99
45.03
42.61
39.78
36.33
31.88
26.12
18.97
10.69
1.82
-7.00
-15.24
-22.62
-29.26
-35.56
-42.13
-49.64
-58.63
-69.23
-80.85
-92.11
-100.86
-104.65
-101.42
-90.18
-71.44
-47.10
-19.94
7.07
31.44
51.48
66.29
75.61
79.60
78.72
73.80
66.07
57.01
48.20
40.92
35.86
33.02
31.83
31.49
31.36
31.18
30.96
30.81
30.65
29.99
28.20
24.61
18.94
11.37
2.57
-6.59
-15.29
-23.07
-29.90
-36.21
-42.72
-50.24
-59.39
-70.31
-82.34
-93.89
-102.61
-105.94
-101.82
-89.50
-69.89
-45.34
-18.97
6.17
27.82
44.75
56.53
63.22
65.09
62.63
56.67
48.50
39.67
31.67
25.53
21.61
19.60
18.85
18.77
18.98
19.35
19.76
19.93
19.25
17.02
12.71
6.31
-1.71
-10.47
-19.08
-26.97
-34.05
-40.74
-47.81
-56.18
-66.56
-78.98
-92.52
-105.05
-113.64
-115.25
-107.72
-90.62
-65.51
-35.50
-4.35
24.58
48.96
67.57
80.13
86.92
88.50
85.72
79.72
71.85
63.50
55.84
49.57
44.85
41.46
38.98
37.09
35.66
34.67
34.07
33.56
32.53
30.19
25.80
19.05
10.16
-0.08
-10.64
-20.58
-29.40
-37.20
-44.67
-52.82
-62.67
-74.78
-88.84
-103.28
-115.41
-121.91
-119.83
-107.59
-85.66
-56.49
-23.82
8.44
37.15
60.35
77.25
87.88
92.72
92.58
88.53
81.96
74.42
67.25
61.31
56.83
53.45
50.59
47.83
45.12
42.73
40.98
39.92
39.11
37.69
34.65
29.25
21.34
11.38
0.33
-10.68
-20.74
-29.38
-36.79
-43.77
-51.45
-60.97
-72.82
-86.40
-99.78
-110.05
-113.96
-109.05
-94.42
-71.15
-41.95
-10.46
19.80
46.09
66.81
81.34
89.76
92.59
90.63
85.01
77.13
68.47
60.36
53.66
48.64
45.01
42.22
39.72
37.30
35.06
33.23
31.92
30.82
29.24
26.28
21.21
13.82
4.55
-5.69
-15.91
-25.31
-33.64
-41.17
-48.58
-56.77
-66.54
-78.24
-91.31
-104.05
-113.69
-117.08
-111.62
-96.29
-72.10
-41.96
-9.77
20.63
46.37
65.91
78.87
85.64
86.98
83.83
77.36
68.94
60.07
52.10
45.94
41.86
39.51
38.22
37.29
36.34
35.31
34.34
33.42
32.22
30.08
26.24
20.19
11.96
2.16
-8.22
-18.16
-26.97
-34.55
-41.41
-48.57
-57.14
-67.90
-80.77
-94.52
-106.71
-114.24
-114.19
-104.80
-86.10
-60.01
-29.77
0.94
28.92
51.99
69.04
79.85
84.66
84.12
79.18
71.17
61.69
52.40
44.62
39.06
35.75
34.10
33.37
32.90
32.35
31.68
30.89
29.78
27.86
24.45
18.99
11.34
1.92
-8.29
-18.18
-26.84
-33.97
-39.97
-45.84
-52.81
-61.94
-73.52
-86.70
-99.38
-108.55
-111.04
-104.53
-88.39
-63.99
-34.34
-3.26
25.66
49.79
67.73
79.09
84.26
83.98
79.30
71.51
62.11
52.65
44.37
38.09
33.96
31.68
30.65
30.30
30.18
30.06
29.72
28.83
26.93
23.52
18.30
11.28
2.91
-6.13
-15.13
-23.56
-31.25
-38.41
-45.60
-53.63
-63.27
-74.78
-87.47
-99.44
-107.77
-109.32
-101.79
-84.67
-59.56
-29.80
0.61
28.06
50.15
65.83
75.08
78.52
77.05
71.73
63.76
54.53
45.39
37.48
31.48
27.61
25.65
25.15
25.59
26.44
27.20
27.39
26.54
24.22
20.11
14.14
6.48
-2.42
-11.86
-21.12
-29.66
-37.30
-44.44
-51.91
-60.74
-71.57
-84.11
-96.80
-106.91
-111.29
-107.32
-93.90
-71.87
-43.86
-13.52
15.49
40.28
59.17
71.62
77.92
78.81
75.35
68.72
60.26
51.25
42.85
35.95
31.03
28.15
27.01
27.09
27.69
28.12
27.75
26.04
22.67
17.53
10.76
2.73
-5.95
-14.64
-22.75
-29.99
-36.46
-42.76
-49.85
-58.75
-69.95
-82.94
-95.83
-105.66
-109.07
-103.44
-87.92
-63.77
-34.17
-3.16
25.40
48.78
65.70
76.12
80.80
80.78
77.15
70.95
63.24
55.07
47.44
41.15
36.70
34.20
33.35
33.63
34.34
34.76
34.25
32.34
28.80
23.61
17.02
9.46
1.42
-6.71
-14.67
-22.53
-30.64
-39.56
-49.94
-62.08
-75.55
-88.84
-99.42
-104.24
-100.65
-87.37
-65.10
-36.48
-5.35
24.29
49.30
67.90
79.71
85.34
85.85
82.39
76.05
67.80
58.61
49.44
41.16
34.46
29.70
26.84
25.47
24.87
24.25
22.84
20.09
15.72
9.75
2.44
-5.80
-14.49
-23.19
-31.52
-39.31
-46.66
-54.04
-62.15
-71.53
-82.16
-92.88
-101.37
-104.62
-99.88
-85.80
-63.02
-34.19
-3.17
26.20
50.95
69.59
81.86
88.32
89.91
87.59
82.40
75.44
67.86
60.73
54.82
50.56
47.90
46.53
45.92
45.50
44.70
42.98
39.92
35.24
28.87
20.98
11.90
2.09
-8.00
-18.00
-27.72
-37.24
-46.95
-57.49
-69.40
-82.63
-96.15
-107.79
-114.62
-113.88
-103.94
-85.07
-59.53
-30.94
-3.23
20.33
37.64
47.87
51.04
47.82
39.25
26.84
12.57
-1.25
-12.42
-19.29
-21.20
-18.60
-12.85
-5.80
0.74
5.47
7.82
7.96
6.55
4.37
1.88
-0.92
-4.49
-9.49
-16.37
-25.16
-35.39
-46.23
-56.67
-65.56
-71.57
-73.11
-68.37
-55.59
-33.59
-2.36
36.31
78.68
119.36
152.58
173.63
180.32
173.73
157.71
137.68
118.90
105.15
98.13
97.66
102.21
109.37
116.26
119.70
116.93
106.44
88.84
67.01
45.27
27.78
16.84
12.12
11.06
10.51
8.35
4.27
-0.82
-6.17
-12.51
-22.02
-37.15
-58.96
-85.84
-113.66
-136.91
-150.50
-151.38
-139.31
-117.01
-89.40
-62.35
-41.12
-28.97
-26.48
-31.98
-42.63
-55.76
-69.59
-83.21
-95.84
-106.42
-113.56
-116.20
-114.09
-107.78
-98.03
-85.24
-69.13
-49.31
-26.07
-0.97
23.28
43.69
58.01
65.50
67.09
64.80
60.90
56.97
53.35
49.19
42.90
33.13
19.56
3.35
-13.00
-26.49
-34.60
-36.09
-31.16
-21.03
-7.32
8.50
25.15
41.37
55.75
66.95
74.06
77.11
77.08
75.55
73.94
72.83
71.66
69.10
63.65
54.29
40.75
23.45
3.33
-18.37
-40.20
-60.70
-78.58
-93.09
-104.08
-111.92
-117.10
-119.82
-119.74
-116.11
-108.00
-94.53
-74.96
-48.77
-16.06
21.80
61.69
99.02
128.90
148.01
155.97
155.14
149.41
142.02
133.95
123.95
109.75
89.71
63.70
32.83
-1.39
-37.56
-74.15
-108.75
-137.87
-157.61
-165.28
-160.80
-147.19
-129.58
-113.40
-102.65
-99.10
-102.41
-110.98
-122.80
-135.84
-148.36
-158.90
-166.34
-170.00
-169.64
-165.32
-157.68
-147.71
-136.45
-124.59
-112.04
-98.07
-81.97
-63.66
-43.98
-24.13
-4.74
14.69
35.64
59.45
86.36
115.20
144.06
171.35
196.57
220.02
241.79
260.89
275.13
282.02
279.80
268.23
248.35
221.84
190.30
154.96
116.83
76.95
36.42
-3.64
-42.34
-79.09
-113.38
-144.68
-172.32
-195.65
-214.26
-228.05
-237.22
-241.99
-242.42
-238.37
-229.78
-216.91
-200.68
-182.63
-164.45
-147.39
-131.74
-116.71
-100.92
-83.25
-63.53
-42.75
-22.58
-4.58
10.52
22.92
33.30
42.20
49.48
54.46
56.38
55.02
50.97
45.41
39.54
34.12
29.20
24.31
18.66
11.50
2.34
-8.79
-21.13
-33.05
-42.16
-45.99
-42.70
-31.89
-14.88
5.57
26.17
44.07
57.58
66.23
70.35
70.63
67.80
62.68
56.43
50.51
46.42
45.13
46.71
50.26
54.33
57.57
59.23
59.34
58.41
57.00
55.34
53.27
50.36
46.28
40.96
34.70
28.02
21.46
15.40
9.81
4.24
-2.14
-10.07
-19.83
-30.72
-41.08
-48.60
-51.06
-47.12
-36.70
-20.93
-1.73
18.89
39.23
58.08
74.59
88.11
98.09
104.22
106.61
105.90
103.10
99.31
95.38
91.76
88.48
85.38
82.33
79.36
76.62
74.25
72.17
70.14
67.79
64.85
61.23
57.05
52.47
47.64
42.54
37.12
31.25
24.80
17.55
9.19
-0.67
-12.23
-25.20
-38.60
-50.72
-59.46
-62.87
-59.71
-49.88
-34.38
-15.08
5.82
26.25
44.68
60.20
72.41
81.28
86.86
89.28
88.71
85.50
80.22
73.72
66.91
60.56
55.03
50.21
45.71
41.05
35.98
30.47
24.60
18.27
11.07
2.45
-7.93
-19.83
-32.41
-44.39
-54.55
-62.13
-67.05
-69.87
-71.54
-73.20
-75.96
-80.66
-87.60
-96.30
-105.40
-112.94
-116.88
-115.65
-108.50
-95.52
-77.51
-55.72
-31.75
-7.45
15.23
34.57
49.46
59.70
65.91
69.20
70.65
70.92
70.23
68.56
65.99
62.84
59.51
56.31
53.21
49.90
46.12
41.94
37.94
35.01
33.88
34.65
36.58
38.36
38.62
36.44
31.67
24.85
17.00
9.11
1.84
-4.82
-11.48
-19.00
-27.86
-37.54
-46.42
-52.22
-52.91
-47.69
-37.42
-24.41
-11.50
-1.16
5.18
7.19
5.27
0.08
-7.62
-17.02
-27.11
-36.65
-44.43
-49.54
-51.67
-51.14
-48.77
-45.47
-41.94
-38.51
-35.34
-32.63
-30.76
-30.26
-31.41
-33.94
-36.93
-39.13
-39.54
-37.94
-35.11
-32.49
-31.61
-33.52
-38.33
-45.23
-52.71
-58.94
-62.08
-60.64
-53.68
-41.08
-23.58
-2.64
19.85
42.11
62.70
80.71
95.54
106.83
114.34
118.08
118.40
116.00
111.78
106.57
100.97
95.33
89.81
84.65
80.05
76.14
72.70
69.19
64.80
58.76
50.61
40.35
28.42
15.46
2.09
-11.24
-24.31
-37.15
-49.92
-62.87
-76.25
-90.12
-104.14
-117.44
-128.60
-135.92
-137.92
-133.80
-123.76
-108.98
-91.21
-72.23
-53.47
-35.75
-19.50
-4.95
7.59
17.82
25.50
30.69
33.76
35.22
35.45
34.47
31.93
27.30
20.22
10.81
-0.25
-11.84
-22.72
-31.78
-38.24
-41.64
-41.94
-39.45
-34.88
-29.28
-23.79
-19.37
-16.63
-15.76
-16.66
-19.12
-22.78
-27.02
-30.79
-32.64
-31.18
-25.58
-16.04
-3.78
9.36
21.70
32.18
40.55
47.06
52.04
55.57
57.49
57.73
56.55
54.67
53.05
52.48
53.23
55.06
57.38
59.64
61.56
63.10
64.27
64.83
64.28
62.00
57.62
51.30
43.65
35.53
27.64
20.26
13.21
6.08
-1.56
-9.88
-18.71
-27.52
-35.40
-41.17
-43.55
-41.47
-34.48
-22.93
-8.07
8.36
24.52
38.93
50.81
59.95
66.60
71.10
73.69
74.42
73.18
69.88
64.62
57.78
50.06
42.33
35.38
29.77
25.73
23.15
21.75
21.13
20.91
20.75
20.41
19.84
19.24
18.99
19.43
20.61
22.01
22.58
21.04
16.38
8.34
-2.45
-14.65
-26.67
-37.12
-45.09
-50.14
-52.14
-51.11
-47.14
-40.51
-31.82
-22.05
-12.39
-3.98
2.36
6.26
7.71
6.91
4.13
-0.35
-6.18
-12.87
-19.90
-26.78
-33.25
-39.30
-45.12
-50.83
-56.38
-61.49
-65.81
-69.15
-71.59
-73.46
-75.13
-76.82
-78.49
-79.87
-80.68
-80.87
-80.66
-80.51
-80.91
-82.14
-84.22
-86.93
-89.88
-92.64
-94.63
-95.09
-93.09
-87.76
-78.58
-65.75
-50.16
-33.26
-16.62
-1.63
10.81
20.24
26.62
30.17
31.37
30.90
29.56
28.11
27.09
26.67
26.66
26.68
26.34
25.45
24.06
22.47
21.02
19.90
19.09
18.35
17.37
15.91
13.90
11.50
8.94
6.37
3.81
1.13
-1.96
-5.75
-10.43
-15.97
-21.94
-27.54
-31.71
-33.36
-31.74
-26.71
-18.79
-9.07
1.18
10.79
18.88
24.88
28.47
29.52
28.03
24.20
18.40
11.10
2.84
-5.85
-14.54
-22.84
-30.45
-37.19
-43.03
-48.09
-52.64
-56.92
-61.13
-65.27
-69.15
-72.46
-74.86
-76.15
-76.31
-75.59
-74.46
-73.57
-73.53
-74.67
-76.83
-79.23
-80.47
-79.02
-73.58
-63.55
-49.29
-32.01
-13.43
4.68
20.89
34.28
44.50
51.62
55.95
57.90
57.89
56.25
53.30
49.37
44.87
40.30
36.15
32.78
30.30
28.52
27.06
25.44
23.28
20.32
16.51
11.97
6.88
1.46
-4.06
-9.53
-14.91
-20.34
-26.15
-32.76
-40.47
-49.19
-58.14
-65.84
-70.37
-69.92
-63.37
-50.83
-33.63
-13.95
5.85
23.83
38.83
50.45
58.84
64.34
67.35
68.24
67.37
65.21
62.22
58.84
55.39
52.02
48.78
45.58
42.42
39.25
36.00
32.56
28.72
24.26
19.05
13.11
6.65
0.05
-6.31
-12.10
-17.26
-22.01
-26.87
-32.45
-39.16
-46.81
-54.42
-60.27
-62.39
-59.13
-49.87
-35.27
-17.08
2.38
20.89
36.85
49.47
58.62
64.53
67.57
68.07
66.40
62.98
58.37
53.19
47.99
43.17
38.89
35.18
31.97
29.24
26.95
24.98
23.08
20.93
18.18
14.62
10.26
5.30
0.06
-5.21
-10.32
-15.27
-20.25
-25.60
-31.75
-39.00
-47.23
-55.69
-62.94
-67.11
-66.52
-60.15
-48.12
-31.67
-12.77
6.41
24.10
39.07
50.77
59.02
63.87
65.56
64.52
61.43
57.22
52.83
49.04
46.22
44.32
42.97
41.77
40.50
39.18
37.98
37.00
36.11
34.88
32.76
29.30
24.39
18.34
11.79
5.43
-0.22
-5.01
-9.23
-13.45
-18.41
-24.72
-32.61
-41.67
-50.73
-57.98
-61.34
-59.07
-50.37
-35.80
-17.21
2.78
21.57
37.24
48.92
56.69
61.15
63.03
62.86
61.02
57.88
53.90
49.61
45.49
41.80
38.50
35.38
32.23
29.01
25.89
23.12
20.89
19.11
17.43
15.28
12.14
7.77
2.30
-3.80
-9.88
-15.41
-20.09
-23.98
-27.48
-31.15
-35.57
-41.02
-47.33
-53.72
-58.81
-60.97
-58.83
-51.72
-40.08
-25.34
-9.54
5.35
17.89
27.46
34.02
37.89
39.37
38.72
36.21
32.38
27.98
23.88
20.76
18.87
17.99
17.60
17.21
16.53
15.62
14.71
14.02
13.56
13.02
11.93
9.85
6.63
2.51
-1.90
-5.94
-9.18
-11.54
-13.41
-15.43
-18.26
-22.35
-27.75
-34.10
-40.51
-45.77
-48.49
-47.48
-42.12
-32.58
-19.89
-5.66
8.40
20.81
30.64
37.48
41.28
42.26
40.75
37.26
32.43
27.03
21.87
17.60
14.60
12.87
12.11
11.82
11.54
10.97
10.04
8.84
7.44
5.82
3.78
1.12
-2.33
-6.46
-11.00
-15.51
-19.62
-23.16
-26.24
-29.25
-32.75
-37.30
-43.15
-50.04
-57.06
-62.73
-65.35
-63.55
-56.72
-45.32
-30.71
-14.79
0.56
13.92
24.49
32.03
36.70
38.79
38.75
37.04
34.23
30.94
27.70
24.93
22.73
20.99
19.45
17.85
16.13
14.41
12.91
11.75
10.83
9.80
8.18
5.63
2.05
-2.34
-7.07
-11.69
-15.84
-19.54
-23.09
-27.06
-32.06
-38.44
-46.04
-54.00
-60.80
-64.68
-64.11
-58.37
-47.79
-33.69
-18.00
-2.68
10.70
21.27
28.75
33.31
35.37
35.39
33.85
31.28
28.21
25.16
22.52
20.46
18.93
17.72
16.58
15.34
14.01
12.70
11.53
10.51
9.39
7.83
5.40
1.86
-2.76
-8.13
-13.74
-19.06
-23.75
-27.77
-31.38
-35.10
-39.44
-44.77
-50.97
-57.34
-62.58
-65.11
-63.46
-56.84
-45.48
-30.65
-14.28
1.59
15.37
26.26
34.20
39.59
42.91
44.52
44.60
43.30
40.88
37.79
34.59
31.75
29.54
27.92
26.63
25.38
24.04
22.65
21.39
20.39
19.51
18.31
16.17
12.59
7.42
1.01
-5.89
-12.41
-17.91
-22.20
-25.60
-28.80
-32.59
-37.58
-43.97
-51.42
-58.97
-65.13
-68.24
-66.88
-60.31
-48.86
-33.75
-16.90
-0.27
14.53
26.48
35.20
40.70
43.21
43.08
40.74
36.79
31.96
27.02
22.61
19.12
16.55
14.61
12.88
11.01
8.86
6.59
4.49
2.80
1.49
0.27
-1.38
-3.92
-7.61
-12.38
-17.84
-23.41
-28.53
-32.77
-36.06
-38.69
-41.25
-44.50
-49.03
-54.99
-61.74
-67.85
-71.34
-70.22
-63.09
-49.68
-31.04
-9.23
13.18
33.89
51.19
64.29
73.08
77.85
79.03
77.07
72.54
66.15
58.79
51.34
44.50
38.61
33.68
29.53
25.99
23.03
20.74
19.19
18.31
17.74
16.88
15.13
12.04
7.55
2.02
-3.91
-9.50
-14.24
-17.96
-20.89
-23.58
-26.65
-30.69
-35.86
-41.84
-47.66
-51.94
-53.12
-50.09
-42.46
-30.77
-16.38
-1.00
13.67
26.33
36.15
42.79
46.27
46.89
45.12
41.57
36.87
31.66
26.45
21.68
17.64
14.49
12.21
10.68
9.68
9.01
8.56
8.22
7.84
7.19
5.94
3.79
0.62
-3.41
-7.92
-12.37
-16.32
-19.58
-22.27
-24.78
-27.67
-31.48
-36.56
-42.86
-49.74
-55.98
-59.93
-59.99
-55.13
-45.32
-31.64
-15.96
-0.39
13.38
24.40
32.47
37.82
40.83
41.81
41.01
38.77
35.56
31.99
28.66
25.97
24.01
22.63
21.54
20.49
19.34
18.14
16.99
15.98
14.99
13.71
11.71
8.60
4.26
-1.08
-6.86
-12.41
-17.20
-21.05
-24.19
-27.18
-30.71
-35.41
-41.59
-48.99
-56.67
-63.08
-66.38
-65.02
-58.31
-46.68
-31.68
-15.47
-0.10
12.94
23.06
30.29
35.07
37.78
38.71
38.04
36.01
33.01
29.53
26.14
23.22
20.94
19.24
17.89
16.62
15.27
13.81
12.35
11.06
9.99
9.08
7.96
6.18
3.32
-0.78
-5.86
-11.34
-16.47
-20.65
-23.70
-25.94
-28.07
-30.93
-35.16
-40.87
-47.51
-53.81
-58.15
-58.89
-54.97
-46.24
-33.57
-18.65
-3.41
10.43
21.78
30.23
35.90
39.09
40.19
39.49
37.33
34.14
30.45
26.80
23.64
21.22
19.53
18.41
17.56
16.75
15.81
14.69
13.42
12.08
10.73
9.38
7.90
6.06
3.61
0.41
-3.53
-7.96
-12.47
-16.71
-20.41
-23.60
-26.49
-29.45
-32.87
-37.07
-42.18
-47.99
-53.85
-58.65
-60.97
-59.48
-53.35
-42.64
-28.39
-12.33
3.58
17.73
29.06
37.20
42.29
44.71
44.95
43.48
40.77
37.32
33.61
30.08
27.10
24.86
23.46
22.78
22.63
22.70
22.71
22.45
21.76
20.59
18.96
16.95
14.61
11.98
8.99
5.47
1.34
-3.42
-8.62
-13.94
-19.00
-23.55
-27.54
-31.12
-34.65
-38.57
-43.36
-49.34
-56.49
-64.21
-71.26
-75.92
-76.45
-71.70
-61.55
-47.04
-29.99
-12.52
3.54
17.02
27.36
34.53
38.81
40.62
40.45
38.84
36.36
33.54
30.78
28.38
26.52
25.24
24.49
24.12
23.90
23.58
22.94
21.86
20.34
18.51
16.50
14.40
12.14
9.50
6.20
2.06
-2.86
-8.28
-13.76
-18.89
-23.43
-27.38
-31.00
-34.70
-38.92
-44.01
-50.05
-56.68
-63.03
-67.71
-69.11
-65.86
-57.37
-44.12
-27.59
-9.84
7.11
21.74
33.25
41.48
46.63
49.09
49.29
47.73
44.97
41.59
38.13
34.96
32.30
30.24
28.74
27.69
26.87
26.03
25.04
23.84
22.53
21.24
19.93
18.34
16.02
12.55
7.82
2.14
-3.89
-9.56
-14.36
-18.18
-21.24
-24.03
-27.11
-30.93
-35.79
-41.77
-48.56
-55.43
-61.15
-64.16
-62.98
-56.67
-45.27
-29.90
-12.50
4.73
19.90
31.83
40.17
45.18
47.39
47.34
45.52
42.38
38.47
34.38
30.76
28.10
26.56
25.96
25.83
25.64
24.99
23.76
22.08
20.22
18.41
16.71
14.92
12.66
9.53
5.26
-0.11
-6.23
-12.48
-18.24
-23.07
-26.92
-30.12
-33.29
-37.12
-42.06
-48.11
-54.63
-60.38
-63.74
-63.14
-57.52
-46.85
-32.14
-15.27
1.62
16.71
28.90
37.84
43.68
46.71
47.23
45.50
41.96
37.32
32.45
28.20
25.06
23.10
22.00
21.26
20.49
19.59
18.64
17.88
17.37
16.98
16.34
14.96
12.49
8.83
4.23
-0.83
-5.75
-10.12
-13.80
-16.99
-20.08
-23.59
-28.00
-33.59
-40.32
-47.64
-54.46
-59.23
-60.30
-56.47
-47.43
-34.02
-18.00
-1.53
13.47
25.74
34.76
40.56
43.35
43.41
41.06
36.88
31.72
26.68
22.75
20.59
20.22
21.14
22.54
23.66
24.04
23.66
22.75
21.58
20.22
18.52
16.13
12.82
8.67
4.13
-0.15
-3.58
-5.99
-7.67
-9.27
-11.60
-15.22
-20.34
-26.72
-33.59
-39.74
-43.66
-43.84
-39.18
-29.50
-15.72
0.30
16.23
29.97
40.09
45.99
47.82
46.11
41.58
35.07
27.53
19.98
13.30
8.10
4.51
2.27
0.93
0.05
-0.60
-1.06
-1.26
-1.21
-1.04
-1.06
-1.59
-2.92
-5.16
-8.20
-11.76
-15.46
-19.01
-22.20
-25.07
-27.88
-31.01
-34.86
-39.69
-45.32
-51.02
-55.49
-57.17
-54.70
-47.41
-35.70
-20.97
-5.29
9.23
21.01
29.28
34.10
35.99
35.63
33.60
30.31
26.12
21.45
16.82
12.77
9.73
7.87
7.10
7.11
7.46
7.76
7.70
7.09
5.85
4.00
1.57
-1.35
-4.72
-8.43
-12.40
-16.55
-20.82
-25.30
-30.19
-35.66
-41.68
-47.68
-52.47
-54.52
-52.39
-45.36
-33.82
-19.18
-3.52
11.10
23.19
32.05
37.69
40.56
41.18
40.04
37.48
33.82
29.46
24.83
20.45
16.76
14.02
12.31
11.41
11.00
10.66
10.04
8.92
7.14
4.65
1.45
-2.44
-6.88
-11.62
-16.39
-20.88
-24.99
-28.89
-33.03
-37.89
-43.72
-50.19
-56.28
-60.47
-61.18
-57.33
-48.69
-36.01
-20.80
-4.88
10.07
22.78
32.50
39.03
42.53
43.46
42.39
39.99
36.82
33.33
29.81
26.42
23.25
20.34
17.76
15.63
14.03
12.95
12.20
11.40
10.08
7.75
4.17
-0.63
-6.31
-12.32
-18.10
-23.26
-27.68
-31.55
-35.32
-39.54
-44.67
-50.79
-57.38
-63.20
-66.62
-65.95
-60.13
-49.14
-34.13
-17.07
-0.17
14.79
26.82
35.68
41.64
45.11
46.46
46.01
44.15
41.38
38.31
35.48
33.21
31.53
30.24
29.07
27.79
26.35
24.92
23.68
22.69
21.74
20.36
17.96
14.12
8.80
2.44
-4.23
-10.45
-15.70
-19.87
-23.25
-26.41
-30.02
-34.71
-40.79
-48.11
-55.81
-62.38
-65.95
-64.79
-58.00
-45.85
-29.84
-12.12
5.06
20.01
31.84
40.42
46.02
49.08
50.03
49.23
47.17
44.37
41.41
38.75
36.64
35.09
33.95
32.97
31.88
30.54
28.90
27.03
25.03
23.05
21.08
18.98
16.44
13.15
8.88
3.70
-2.06
-7.89
-13.26
-17.88
-21.76
-25.25
-28.95
-33.42
-39.04
-45.77
-52.93
-59.30
-63.30
-63.36
-58.44
-48.41
-34.16
-17.39
-0.12
15.80
29.09
39.14
45.94
49.73
50.90
49.86
47.10
43.24
39.02
35.19
32.29
30.56
29.90
29.94
30.24
30.44
30.27
29.61
28.41
26.68
24.43
21.61
18.14
13.88
8.77
2.91
-3.42
-9.72
-15.46
-20.28
-24.13
-27.26
-30.25
-33.70
-38.14
-43.79
-50.43
-57.28
-63.03
-66.15
-65.21
-59.35
-48.65
-34.12
-17.54
-0.84
14.26
26.64
35.83
41.77
44.72
44.99
42.98
39.22
34.44
29.48
25.13
21.98
20.21
19.62
19.74
20.06
20.26
20.17
19.79
19.06
17.86
15.98
13.31
9.91
6.05
2.11
-1.58
-4.91
-8.05
-11.35
-15.27
-20.13
-25.94
-32.25
-38.12
-42.19
-43.06
-39.67
-31.68
-19.68
-5.09
10.27
24.59
36.47
45.11
50.23
51.96
50.72
47.10
41.85
35.78
29.67
24.11
19.43
15.67
12.61
9.98
7.57
5.32
3.32
1.64
0.26
-1.05
-2.68
-5.04
-8.31
-12.45
-17.13
-21.96
-26.61
-30.94
-35.03
-39.14
-43.59
-48.61
-54.23
-60.05
-65.12
-68.10
-67.50
-62.24
-52.16
-38.15
-22.01
-5.90
8.31
19.50
27.39
32.33
34.93
35.70
35.03
33.13
30.28
26.85
23.29
20.00
17.20
14.89
12.92
11.11
9.38
7.76
6.35
5.14
3.92
2.32
-0.05
-3.39
-7.61
-12.28
-16.88
-20.92
-24.21
-26.96
-29.75
-33.31
-38.20
-44.47
-51.46
-57.79
-61.65
-61.36
-55.94
-45.43
-31.00
-14.53
1.87
16.44
28.03
36.22
41.15
43.21
42.93
40.81
37.40
33.25
28.93
24.93
21.54
18.81
16.58
14.68
13.06
11.84
11.21
11.20
11.53
11.60
10.71
8.40
4.62
-0.25
-5.55
-10.71
-15.43
-19.73
-23.88
-28.27
-33.24
-39.06
-45.73
-52.85
-59.49
-64.17
-65.26
-61.44
-52.28
-38.47
-21.75
-4.37
11.58
24.62
34.10
40.03
42.84
43.10
41.42
38.42
34.69
30.76
27.03
23.71
20.80
18.27
16.07
14.30
13.09
12.57
12.71
13.25
13.71
13.50
12.11
9.30
5.19
0.28
-4.78
-9.33
-13.01
-15.89
-18.44
-21.41
-25.52
-31.12
-37.92
-44.82
-50.15
-52.03
-48.99
-40.58
-27.54
-11.69
4.64
19.31
30.87
38.77
43.21
44.74
43.96
41.44
37.62
33.03
28.23
23.77
20.09
17.42
15.73
14.81
14.35
14.00
13.47
12.56
11.16
9.26
6.89
4.12
1.08
-2.12
-5.32
-8.38
-11.18
-13.77
-16.36
-19.34
-23.18
-28.15
-34.01
-39.89
-44.36
-45.81
-42.98
-35.43
-23.78
-9.55
5.35
19.10
30.37
38.45
43.16
44.72
43.58
40.38
35.90
30.95
26.20
22.10
18.73
15.99
13.70
11.76
10.25
9.26
8.79
8.58
8.17
7.00
4.62
0.86
-4.13
-9.96
-16.11
-22.12
-27.59
-32.39
-36.62
-40.69
-45.18
-50.58
-56.91
-63.46
-68.75
-70.91
-68.24
-59.91
-46.30
-28.95
-10.14
7.77
22.96
34.44
42.06
46.22
47.58
46.76
44.27
40.59
36.21
31.72
27.68
24.50
22.34
21.03
20.26
19.64
18.87
17.77
16.19
14.03
11.14
7.47
3.09
-1.82
-6.95
-12.03
-16.91
-21.65
-26.54
-31.98
-38.32
-45.62
-53.38
-60.47
-65.26
-66.09
-61.73
-51.93
-37.52
-20.29
-2.39
14.17
28.01
38.47
45.52
49.52
50.91
50.15
47.70
44.07
39.83
35.56
31.76
28.69
26.41
24.74
23.47
22.44
21.57
20.78
19.90
18.60
16.44
13.07
8.38
2.62
-3.68
-9.82
-15.26
-19.83
-23.78
-27.74
-32.46
-38.50
-45.87
-53.80
-60.77
-64.85
-64.23
-57.89
-45.92
-29.61
-11.05
7.45
23.91
37.03
46.31
51.81
53.93
53.25
50.42
46.19
41.34
36.61
32.60
29.65
27.79
26.77
26.18
25.60
24.74
23.44
21.71
19.56
16.94
13.71
9.66
4.71
-1.00
-7.04
-12.86
-17.95
-22.08
-25.41
-28.46
-31.95
-36.57
-42.68
-50.08
-57.82
-64.32
-67.60
-65.90
-58.27
-45.01
-27.69
-8.67
9.55
25.08
37.00
45.20
50.08
52.13
51.74
49.23
45.10
40.04
34.91
30.47
27.14
24.92
23.43
22.12
20.59
18.71
16.63
14.62
12.87
11.35
9.73
7.56
4.41
0.14
-5.01
-10.46
-15.51
-19.65
-22.73
-25.08
-27.35
-30.27
-34.40
-39.94
-46.53
-53.27
-58.77
-61.38
-59.65
-52.75
-40.78
-24.89
-7.03
10.62
26.16
38.39
46.87
51.71
53.37
52.36
49.28
44.76
39.51
34.25
29.54
25.71
22.77
20.59
18.92
17.59
16.51
15.58
14.67
13.54
11.95
9.66
6.52
2.51
-2.28
-7.68
-13.41
-19.10
-24.37
-28.94
-32.82
-36.32
-40.13
-44.98
-51.29
-58.79
-66.31
-71.95
-73.59
-69.62
-59.59
-44.37
-25.98
-6.93
10.54
24.95
35.76
43.11
47.45
49.24
48.82
46.55
42.97
38.76
34.66
31.25
28.72
26.94
25.55
24.16
22.57
20.81
19.00
17.27
15.56
13.64
11.20
7.95
3.84
-0.98
-6.13
-11.16
-15.71
-19.67
-23.15
-26.58
-30.51
-35.48
-41.76
-49.04
-56.37
-62.20
-64.77
-62.66
-55.28
-43.11
-27.62
-10.83
5.26
19.05
29.63
36.71
40.51
41.51
40.35
37.70
34.22
30.49
26.97
23.99
21.68
20.00
18.71
17.53
16.18
14.55
12.75
10.96
9.32
7.80
6.08
3.75
0.49
-3.71
-8.51
-13.31
-17.54
-20.91
-23.60
-26.24
-29.68
-34.65
-41.37
-49.32
-57.19
-63.12
-65.17
-61.95
-53.08
-39.41
-22.76
-5.38
10.68
24.03
34.05
40.74
44.38
45.32
43.96
40.76
36.42
31.75
27.51
24.22
22.00
20.63
19.65
18.66
17.44
16.11
14.91
14.13
13.80
13.65
13.05
11.29
7.87
2.66
-3.86
-10.90
-17.53
-23.11
-27.42
-30.75
-33.67
-36.89
-41.00
-46.32
-52.72
-59.50
-65.37
-68.69
-67.80
-61.65
-50.18
-34.43
-16.31
1.96
18.39
31.69
41.25
47.11
49.60
49.24
46.60
42.36
37.30
32.32
28.25
25.66
24.67
24.84
25.36
25.37
24.34
22.24
19.58
17.02
15.06
13.69
12.52
10.88
8.24
4.42
-0.37
-5.65
-10.92
-15.80
-20.20
-24.21
-28.07
-32.07
-36.49
-41.52
-47.17
-53.09
-58.50
-62.23
-62.88
-59.29
-50.91
-38.12
-22.23
-5.14
11.14
24.98
35.44
42.27
45.73
46.34
44.73
41.54
37.47
33.23
29.46
26.62
24.89
24.13
24.00
24.14
24.27
24.22
23.88
23.07
21.58
19.15
15.56
10.83
5.16
-1.02
-7.20
-12.92
-17.95
-22.27
-26.18
-30.16
-34.79
-40.49
-47.23
-54.36
-60.52
-63.95
-63.04
-56.85
-45.58
-30.50
-13.62
2.96
17.64
29.57
38.55
44.77
48.43
49.71
48.77
45.93
41.77
37.06
32.59
28.90
26.21
24.39
23.10
22.04
21.03
20.09
19.27
18.50
17.48
15.71
12.73
8.29
2.57
-3.85
-10.24
-15.96
-20.71
-24.65
-28.25
-32.17
-37.02
-43.15
-50.54
-58.61
-66.28
-71.98
-73.99
-70.96
-62.31
-48.57
-31.36
-12.96
4.37
18.91
29.77
36.96
40.99
42.61
42.54
41.45
39.97
38.68
38.04
38.29
39.32
40.74
42.00
42.60
42.28
41.05
39.14
36.84
34.33
31.60
28.40
24.40
19.33
13.19
6.28
-0.83
-7.54
-13.43
-18.44
-22.83
-27.12
-31.88
-37.57
-44.38
-52.05
-59.75
-66.14
-69.51
-68.32
-61.76
-50.06
-34.57
-17.38
-0.65
13.92
25.39
33.57
38.70
41.25
41.66
40.39
37.94
34.87
31.71
28.88
26.57
24.72
23.17
21.73
20.28
18.89
17.72
16.88
16.34
15.81
14.83
12.87
9.58
4.96
-0.63
-6.51
-11.97
-16.46
-19.81
-22.24
-24.31
-26.76
-30.32
-35.46
-42.23
-50.03
-57.57
-63.05
-64.55
-60.65
-50.94
-36.25
-18.47
0.01
16.92
30.72
40.74
47.09
50.24
50.74
49.06
45.61
40.92
35.68
30.69
26.54
23.48
21.35
19.63
17.83
15.71
13.37
11.18
9.49
8.36
7.50
6.40
4.55
1.67
-2.14
-6.43
-10.63
-14.25
-17.05
-19.19
-21.14
-23.55
-27.02
-31.88
-38.02
-44.83
-51.19
-55.62
-56.68
-53.32
-45.18
-32.82
-17.61
-1.37
14.07
27.24
37.25
43.81
47.08
47.45
45.51
41.89
37.27
32.33
27.62
23.53
20.26
17.85
16.25
15.34
14.96
14.96
15.14
15.24
14.98
14.02
12.01
8.69
4.02
-1.76
-8.05
-14.13
-19.32
-23.29
-26.23
-28.89
-32.28
-37.34
-44.47
-53.25
-62.32
-69.69
-73.21
-71.28
-63.34
-50.03
-33.06
-14.65
3.02
18.28
30.16
38.36
43.05
44.70
43.87
41.26
37.59
33.56
29.80
26.71
24.47
23.00
22.06
21.40
20.79
20.17
19.52
18.76
17.69
15.99
13.33
9.51
4.66
-0.84
-6.38
-11.43
-15.73
-19.42
-23.01
-27.27
-32.85
-40.06
-48.48
-56.94
-63.63
-66.52
-64.03
-55.50
-41.50
-23.69
-4.41
13.96
29.49
41.01
48.18
51.31
51.15
48.63
44.67
40.10
35.52
31.36
27.82
24.99
22.81
21.20
20.05
19.26
18.67
18.12
17.30
15.86
13.45
9.83
5.01
-0.77
-7.06
-13.36
-19.26
-24.52
-29.21
-33.63
-38.29
-43.78
-50.40
-57.88
-65.16
-70.50
-71.89
-67.72
-57.43
-41.84
-22.97
-3.48
14.14
28.12
37.77
43.29
45.38
44.93
42.65
39.14
34.92
30.54
26.58
23.50
21.52
20.54
20.25
20.25
20.30
20.31
20.27
20.09
19.45
17.85
14.83
10.25
4.38
-2.07
-8.29
-13.66
-17.98
-21.62
-25.29
-29.79
-35.60
-42.51
-49.50
-54.87
-56.66
-53.24
-43.90
-29.13
-10.52
9.63
28.93
45.47
58.10
66.47
70.86
71.90
70.38
67.14
62.99
58.70
54.94
52.17
50.46
49.40
48.14
45.62
41.05
34.17
25.44
15.85
6.48
-1.94
-9.22
-15.57
-21.35
-26.73
-31.53
-35.40
-38.14
-39.92
-41.37
-43.45
-47.00
-52.35
-58.99
-65.52
-70.00
-70.42
-65.40
-54.59
-38.93
-20.37
-1.30
16.04
30.09
40.19
46.40
49.22
49.25
47.00
42.93
37.56
31.52
25.58
20.47
16.71
14.48
13.55
13.42
13.46
13.07
11.82
9.50
6.11
1.85
-3.04
-8.27
-13.57
-18.81
-23.92
-28.97
-34.10
-39.54
-45.43
-51.63
-57.56
-62.13
-63.87
-61.38
-53.81
-41.32
-25.22
-7.65
8.94
22.50
31.85
36.82
38.07
36.67
33.71
30.06
26.18
22.25
18.33
14.50
10.96
8.08
6.21
5.56
6.01
7.15
8.35
9.01
8.73
7.37
5.05
1.95
-1.75
-5.96
-10.66
-15.85
-21.50
-27.62
-34.30
-41.63
-49.49
-57.32
-63.95
-67.72
-66.92
-60.40
-48.10
-31.28
-12.18
6.60
22.87
35.29
43.50
47.86
49.09
47.92
44.99
40.84
36.03
31.11
26.64
23.02
20.43
18.81
17.87
17.26
16.67
15.88
14.71
13.04
10.72
7.61
3.70
-0.92
-6.00
-11.26
-16.48
-21.61
-26.81
-32.37
-38.62
-45.63
-53.00
-59.71
-64.17
-64.67
-59.86
-49.36
-34.00
-15.72
3.09
20.15
33.91
43.70
49.58
52.06
51.74
49.24
45.20
40.29
35.21
30.56
26.78
24.02
22.17
20.96
20.14
19.50
18.95
18.37
17.51
16.00
13.44
9.55
4.42
-1.51
-7.59
-13.17
-17.94
-22.02
-25.97
-30.59
-36.55
-44.08
-52.66
-61.00
-67.19
-69.24
-65.64
-55.95
-41.01
-22.75
-3.61
14.12
28.79
39.61
46.53
49.91
50.30
48.25
44.40
39.50
34.37
29.83
26.47
24.48
23.68
23.65
23.95
24.29
24.56
24.66
24.46
23.63
21.76
18.52
13.85
8.02
1.59
-4.76
-10.51
-15.45
-19.74
-23.87
-28.50
-34.23
-41.43
-49.89
-58.76
-66.49
-71.19
-71.03
-64.87
-52.63
-35.48
-15.53
4.71
22.99
37.78
48.41
54.94
57.87
57.87
55.60
51.70
46.76
41.40
36.16
31.52
27.82
25.23
23.79
23.35
23.64
24.29
24.83
24.86
24.00
22.06
18.92
14.59
9.15
2.72
-4.53
-12.36
-20.49
-28.74
-37.04
-45.40
-53.77
-61.75
-68.39
-72.24
-71.71
-65.64
-53.91
-37.58
-18.75
0.06
16.63
29.58
38.49
43.70
45.98
46.02
44.35
41.26
37.04
32.05
26.82
21.88
17.65
14.31
11.78
9.87
8.41
7.29
6.43
5.66
4.63
2.91
0.16
-3.67
-8.36
-13.44
-18.47
-23.20
-27.75
-32.49
-37.96
-44.64
-52.65
-61.49
-69.92
-76.09
-77.93
-73.82
-63.24
-47.02
-27.25
-6.62
12.31
27.72
38.80
45.62
48.75
49.03
47.20
43.93
39.80
35.27
30.75
26.56
22.91
19.89
17.53
15.80
14.61
13.86
13.33
12.75
11.75
9.95
7.07
3.05
-1.90
-7.38
-12.96
-18.28
-23.25
-28.06
-33.16
-39.05
-46.05
-54.00
-62.02
-68.64
-71.98
-70.39
-62.95
-49.91
-32.65
-13.36
5.58
22.11
34.93
43.51
48.02
49.06
47.42
43.97
39.52
34.78
30.27
26.40
23.31
21.02
19.47
18.52
18.06
17.90
17.80
17.43
16.40
14.36
11.11
6.68
1.37
-4.42
-10.22
-15.72
-20.82
-25.67
-30.66
-36.25
-42.85
-50.47
-58.55
-65.85
-70.65
-71.15
-66.06
-55.07
-39.11
-20.14
-0.65
17.03
31.21
41.15
46.91
49.13
48.66
46.34
42.85
38.79
34.60
30.62
27.09
24.16
21.87
20.21
19.11
18.45
18.05
17.60
16.73
15.05
12.28
8.36
3.48
-1.97
-7.53
-12.80
-17.59
-21.97
-26.22
-30.77
-36.10
-42.46
-49.65
-56.80
-62.30
-64.16
-60.62
-50.83
-35.36
-16.13
4.15
22.76
37.77
48.31
54.46
56.86
56.25
53.35
48.78
43.27
37.61
32.61
28.86
26.59
25.65
25.59
25.90
26.18
26.22
25.96
25.35
24.24
22.38
19.51
15.57
10.79
5.69
0.79
-3.60
-7.57
-11.65
-16.53
-22.81
-30.70
-39.86
-49.28
-57.40
-62.40
-62.61
-57.06
-45.89
-30.45
-12.94
4.17
18.85
29.85
36.83
40.07
40.13
37.67
33.42
28.18
22.80
18.04
14.39
11.99
10.64
10.02
9.87
10.03
10.41
10.83
10.98
10.42
8.75
5.85
1.91
-2.60
-7.19
-11.54
-15.65
-19.71
-24.03
-28.80
-34.15
-40.05
-46.38
-52.71
-58.17
-61.43
-61.01
-55.75
-45.35
-30.69
-13.65
3.45
18.50
30.16
37.99
42.22
43.43
42.21
39.03
34.32
28.54
22.25
16.10
10.74
6.66
4.08
2.82
2.31
1.82
0.67
-1.53
-4.73
-8.49
-12.25
-15.51
-18.12
-20.18
-22.05
-24.09
-26.66
-30.01
-34.30
-39.41
-44.75
-49.23
-51.31
-49.47
-42.72
-31.05
-15.58
1.80
18.88
33.81
45.42
53.27
57.47
58.45
56.74
52.95
47.72
41.69
35.48
29.61
24.47
20.34
17.36
15.47
14.42
13.74
12.89
11.37
8.90
5.52
1.48
-2.87
-7.25
-11.57
-15.90
-20.49
-25.67
-31.80
-39.12
-47.62
-56.79
-65.51
-72.10
-74.71
-71.83
-62.81
-48.23
-29.76
-9.81
9.11
25.03
36.83
44.36
48.20
49.20
48.20
45.86
42.54
38.51
34.10
29.73
25.87
22.89
20.88
19.59
18.57
17.26
15.27
12.46
8.95
5.00
0.89
-3.25
-7.42
-11.76
-16.47
-21.75
-27.85
-34.96
-43.16
-52.15
-61.08
-68.45
-72.38
-71.11
-63.69
-50.40
-32.84
-13.51
5.00
20.60
32.23
39.84
44.10
45.96
46.27
45.58
44.12
42.00
39.24
36.00
32.52
29.13
26.16
23.80
22.03
20.64
19.27
17.53
15.07
11.71
7.44
2.42
-3.09
-8.80
-14.46
-19.97
-25.40
-31.02
-37.19
-44.21
-52.03
-60.07
-67.08
-71.32
-71.05
-65.05
-53.17
-36.45
-16.92
2.94
20.92
35.54
46.24
53.16
56.83
57.86
56.76
54.00
50.05
45.49
40.92
36.85
33.55
30.94
28.73
26.58
24.30
21.98
19.88
18.25
17.09
16.03
14.44
11.74
7.66
2.40
-3.39
-8.97
-13.80
-17.82
-21.47
-25.54
-30.88
-38.01
-46.82
-56.42
-65.25
-71.31
-72.72
-68.25
-57.76
-42.29
-23.78
-4.56
13.24
28.08
39.28
46.78
50.96
52.39
51.68
49.42
46.24
42.78
39.66
37.36
36.04
35.58
35.56
35.45
34.80
33.35
31.14
28.40
25.41
22.33
19.11
15.47
11.12
5.86
-0.23
-6.76
-13.11
-18.66
-23.02
-26.16
-28.46
-30.61
-33.39
-37.44
-42.97
-49.58
-56.19
-61.19
-62.81
-59.59
-50.89
-37.15
-19.83
-1.04
17.05
32.66
44.75
52.96
57.44
58.59
56.94
53.05
47.65
41.58
35.69
30.72
27.06
24.73
23.37
22.49
21.60
20.38
18.70
16.55
13.99
11.07
7.77
4.01
-0.31
-5.23
-10.66
-16.36
-21.94
-27.00
-31.32
-34.90
-38.07
-41.31
-45.20
-50.16
-56.41
-63.75
-71.43
-78.09
-81.96
-81.30
-74.92
-62.74
-45.85
-26.35
-6.70
11.00
25.36
35.89
42.73
46.32
47.19
45.86
42.95
39.19
35.39
32.28
30.26
29.33
29.06
28.88
28.27
27.09
25.52
23.92
22.62
21.57
20.35
18.29
14.80
9.65
3.13
-4.06
-11.02
-17.09
-22.08
-26.29
-30.41
-35.21
-41.22
-48.49
-56.44
-63.85
-69.05
-70.31
-66.33
-56.69
-42.09
-24.19
-5.24
12.53
27.46
38.70
46.18
50.34
51.82
51.25
49.18
46.03
42.27
38.33
34.66
31.59
29.28
27.66
26.54
25.69
24.94
24.23
23.53
22.75
21.60
19.67
16.55
12.10
6.56
0.55
-5.18
-10.00
-13.72
-16.65
-19.53
-23.30
-28.73
-36.09
-44.88
-53.83
-61.03
-64.42
-62.38
-54.31
-40.85
-23.82
-5.64
11.31
25.26
35.35
41.55
44.33
44.34
42.20
38.45
33.67
28.50
23.68
19.85
17.34
16.14
15.82
15.83
15.71
15.32
14.81
14.37
14.02
13.44
12.08
9.44
5.37
0.17
-5.49
-10.86
-15.44
-19.15
-22.30
-25.39
-28.97
-33.41
-38.85
-45.01
-51.19
-56.23
-58.69
-57.22
-50.94
-39.85
-24.89
-7.79
9.37
24.69
36.84
45.21
49.83
51.16
49.83
46.53
41.97
36.91
32.06
28.03
25.13
23.32
22.26
21.43
20.41
18.98
17.15
15.10
12.94
10.65
8.01
4.74
0.64
-4.25
-9.59
-14.86
-19.54
-23.37
-26.51
-29.50
-33.11
-37.97
-44.24
-51.43
-58.33
-63.23
-64.42
-60.65
-51.59
-38.00
-21.58
-4.46
11.27
24.08
33.14
38.32
39.91
38.47
34.75
29.57
23.85
18.51
14.29
11.59
10.39
10.28
10.64
10.83
10.45
9.40
7.86
6.17
4.57
3.08
1.46
-0.69
-3.62
-7.36
-11.58
-15.80
-19.60
-22.83
-25.66
-28.51
-31.87
-36.10
-41.32
-47.26
-53.23
-58.15
-60.68
-59.54
-53.91
-43.76
-29.97
-14.18
1.68
15.83
26.99
34.57
38.58
39.46
37.91
34.70
30.60
26.24
22.15
18.67
16.06
14.41
13.65
13.57
13.77
13.82
13.34
12.14
10.23
7.74
4.84
1.58
-2.06
-6.23
-11.03
-16.52
-22.69
-29.49
-36.91
-44.79
-52.81
-60.21
-65.87
-68.40
-66.53
-59.57
-47.80
-32.45
-15.50
0.93
15.11
26.02
33.45
37.77
39.62
39.66
38.31
35.82
32.33
27.98
23.09
18.16
13.79
10.48
8.50
7.75
7.79
8.01
7.81
6.75
4.67
1.58
-2.37
-6.94
-11.87
-16.94
-22.05
-27.25
-32.86
-39.30
-46.85
-55.35
-63.90
-70.88
-74.30
-72.37
-64.19
-50.10
-31.71
-11.49
7.95
24.48
36.90
44.99
49.25
50.59
49.87
47.80
44.85
41.38
37.69
34.17
31.23
29.25
28.48
28.94
30.42
32.46
34.45
35.74
35.78
34.26
31.21
27.00
22.21
17.45
13.12
9.26
5.53
1.29
-4.10
-10.95
-18.81
-26.35
-31.38
-31.38
-24.31
-9.50
11.76
36.29
59.69
77.54
86.75
86.33
77.51
63.03
46.14
29.75
15.88
5.56
-0.94
-3.83
-3.52
-0.54
4.35
10.29
16.32
21.67
25.64
27.71
27.65
25.53
21.75
16.70
10.78
4.35
-1.98
-7.94
-13.42
-18.57
-23.46
-28.05
-32.46
-36.53
-39.46
-39.21
-34.03
-22.74
-5.54
16.42
41.12
65.59
87.13
104.03
116.82
126.04
132.11
134.61
133.07
127.28
116.74
101.69
83.42
65.15
48.94
35.43
23.04
9.40
-2.93
-11.35
-14.74
-22.11
-35.75
-56.56
-80.04
-103.98
-126.43
-145.60
-160.69
-171.46
-177.98
-179.40
-176.35
-170.27
-163.44
-157.18
-151.56
-145.95
-138.89
-128.64
-112.88
-91.18
-64.62
-35.75
-6.96
20.05
44.06
64.59
81.81
96.98
111.08
124.83
138.41
151.91
165.26
178.05
189.67
199.50
207.34
213.01
216.58
218.27
218.71
218.59
218.46
218.60
219.08
219.93
220.79
220.92
219.00
213.51
203.09
187.14
166.22
141.99
116.81
93.01
72.18
54.93
40.94
29.36
19.29
10.10
1.50
-6.52
-13.97
-21.01
-28.01
-35.38
-43.36
-51.81
-60.17
-67.76
-74.03
-78.89
-82.66
-85.93
-89.23
-92.78
-96.44
-99.82
-102.64
-104.82
-106.60
-108.40
-110.59
-113.37
-116.67
-120.20
-123.68
-126.89
-129.72
-132.13
-134.12
-135.64
-136.65
-137.09
-136.87
-135.90
-134.06
-131.19
-127.24
-122.25
-116.48
-110.32
-104.20
-98.47
-93.34
-88.89
-85.07
-81.79
-78.95
-76.43
-74.11
-71.84
-69.44
-66.73
-63.56
-59.89
-55.89
-51.94
-48.57
-46.25
-45.21
-45.40
-46.54
-48.33
-50.61
-53.39
-56.75
-60.64
-64.78
-68.70
-71.94
-74.25
-75.71
-76.64
-77.45
-78.37
-79.37
-80.10
-80.07
-78.72
-75.70
-70.90
-64.57
-57.20
-49.49
-42.13
-35.66
-30.40
-26.45
-23.81
-22.40
-22.22
-23.22
-25.22
-27.85
-30.37
-31.77
-30.87
-26.74
-19.11
-8.75
2.55
12.47
18.99
21.25
19.97
17.22
15.65
17.40
23.39
33.20
45.59
59.27
73.46
88.04
103.28
119.48
136.64
154.44
172.43
190.05
206.62
221.18
232.44
239.01
239.85
234.78
224.68
211.27
196.49
181.87
168.13
155.29
142.94
130.67
118.13
105.07
91.09
75.76
58.79
40.38
21.25
2.50
-14.94
-30.73
-45.25
-59.35
-73.79
-88.82
-104.02
-118.50
-131.32
-141.76
-149.41
-154.09
-155.66
-153.86
-148.45
-139.20
-126.12
-109.39
-89.43
-66.89
-42.75
-18.26
5.04
25.65
42.41
54.82
63.15
68.13
70.58
70.97
69.27
65.19
58.49
49.30
38.21
26.12
13.90
2.24
-8.41
-17.81
-25.88
-32.78
-38.88
-44.76
-50.91
-57.36
-63.53
-68.33
-70.67
-70.09
-67.06
-63.00
-59.74
-58.77
-60.69
-64.93
-70.00
-74.09
-75.63
-73.72
-68.22
-59.59
-48.69
-36.60
-24.61
-14.06
-6.13
-1.56
-0.28
-1.45
-3.62
-5.25
-5.20
-3.03
1.04
6.47
12.76
19.60
26.85
34.31
41.49
47.63
51.87
53.55
52.48
49.05
44.14
38.84
34.13
30.66
28.49
27.16
25.76
23.34
19.18
13.18
5.84
-1.88
-8.97
-14.73
-19.00
-22.14
-24.82
-27.80
-31.66
-36.68
-42.76
-49.44
-55.85
-60.94
-63.76
-63.77
-61.13
-56.67
-51.56
-46.94
-43.43
-41.05
-39.32
-37.46
-34.84
-31.11
-26.23
-20.57
-14.69
-9.25
-4.90
-2.03
-0.79
-1.01
-2.31
-4.25
-6.44
-8.54
-10.28
-11.37
-11.57
-10.85
-9.35
-7.47
-5.67
-4.33
-3.67
-3.71
-4.43
-5.76
-7.60
-9.73
-11.81
-13.42
-14.20
-13.98
-12.87
-11.23
-9.49
-8.08
-7.29
-7.28
-8.01
-9.26
-10.61
-11.55
-11.68
-10.81
-9.19
-7.47
-6.56
-7.35
-10.48
-16.04
-23.47
-31.65
-39.12
-44.53
-46.98
-46.32
-43.07
-38.20
-32.77
-27.50
-22.68
-18.16
-13.64
-8.80
-3.55
2.00
7.58
12.88
17.67
21.87
25.59
29.14
32.98
37.51
43.02
49.40
56.20
62.66
67.98
71.62
73.46
73.81
73.15
71.88
70.04
67.32
63.37
58.04
51.64
44.85
38.40
32.85
28.28
24.46
21.03
17.75
14.55
11.49
8.42
5.10
1.26
-3.14
-7.77
-12.01
-15.35
-17.64
-19.30
-21.16
-23.98
-28.08
-33.21
-38.60
-43.42
-47.19
-49.83
-51.66
-52.95
-53.70
-53.55
-51.96
-48.57
-43.41
-37.02
-30.18
-23.63
-17.74
-12.52
-7.65
-2.93
1.66
5.79
9.04
11.15
12.21
12.73
13.45
14.99
17.63
21.18
25.11
28.83
31.91
34.23
35.89
37.01
37.56
37.33
36.08
33.69
30.47
26.96
23.85
21.66
20.52
20.17
20.05
19.55
18.13
15.44
11.35
5.92
-0.52
-7.44
-14.17
-20.09
-24.78
-28.16
-30.51
-32.31
-34.10
-36.23
-38.80
-41.61
-44.26
-46.21
-46.94
-46.10
-43.51
-39.26
-33.63
-27.10
-20.24
-13.78
-8.35
-4.46
-2.28
-1.58
-1.75
-2.03
-1.66
-0.14
2.68
6.63
11.36
16.39
21.31
25.79
29.70
33.07
36.02
38.68
41.10
43.26
45.02
46.34
47.20
47.65
47.76
47.47
46.62
45.02
42.51
39.05
34.72
29.68
24.12
18.27
12.43
6.91
1.98
-2.28
-6.01
-9.53
-13.21
-17.32
-21.93
-26.90
-32.03
-36.99
-41.34
-44.53
-45.89
-44.81
-41.02
-34.68
-26.45
-17.30
-8.25
-0.10
6.69
11.97
15.87
18.73
20.99
23.18
25.82
29.26
33.61
38.69
44.13
49.49
54.33
58.36
61.46
63.64
64.99
65.59
65.39
64.19
61.65
57.50
51.65
44.36
36.14
27.66
19.61
12.49
6.58
2.01
-1.28
-3.49
-4.89
-5.83
-6.65
-7.60
-8.84
-10.39
-12.31
-14.68
-17.70
-21.59
-26.51
-32.34
-38.64
-44.60
-49.27
-51.80
-51.72
-49.02
-44.04
-37.41
-29.89
-22.19
-15.04
-9.05
-4.66
-1.97
-0.73
-0.45
-0.65
-1.04
-1.63
-2.55
-3.89
-5.45
-6.87
-7.70
-7.73
-6.99
-5.67
-3.86
-1.42
1.98
6.53
11.85
16.89
20.18
20.53
17.64
12.40
6.58
2.01
-0.26
-0.32
0.86
2.06
2.57
2.53
2.68
3.86
6.50
10.36
14.82
19.10
22.69
25.38
27.10
27.77
27.21
25.02
20.95
15.10
8.06
0.83
-5.44
-9.82
-11.91
-11.90
-10.41
-8.08
-5.33
-2.16
1.56
5.91
10.51
14.61
17.34
18.11
17.01
14.80
12.79
12.34
14.52
19.72
27.53
36.72
45.42
51.62
53.57
50.42
42.40
30.78
17.36
3.99
-7.92
-17.54
-24.51
-28.87
-30.92
-31.23
-30.66
-30.23
-30.87
-33.07
-36.78
-41.41
-46.13
-50.24
-53.33
-55.38
-56.64
-57.48
-58.31
-59.49
-61.30
-63.81
-66.89
-70.09
-72.72
-74.03
-73.47
-70.85
-66.47
-60.91
-54.87
-48.90
-43.41
-38.61
-34.65
-31.71
-29.95
-29.51
-30.44
-32.62
-35.73
-39.30
-42.61
-44.84
-45.30
-43.80
-40.94
-38.13
-37.17
-39.61
-46.13
-56.41
-69.41
-83.88
-98.85
-113.69
-127.99
-141.15
-152.56
-161.76
-168.92
-175.02
-181.60
-190.41
-202.76
-219.25
-239.50
-262.17
-284.93
-304.81
-318.65
-323.84
-318.98
-304.17
-280.81
-251.04
-217.10
-180.94
-144.30
-108.73
-75.74
-46.59
-21.92
-1.59
15.23
29.58
42.15
52.92
61.22
66.15
67.13
64.36
58.74
51.71
44.65
38.36
32.79
27.14
20.38
11.92
2.06
-7.94
-16.32
-21.58
-23.15
-21.61
-18.37
-15.03
-12.65
-11.51
-11.18
-11.04
-10.61
-9.80
-8.69
-7.34
-5.56
-2.94
1.01
6.59
13.73
22.07
31.03
40.07
48.91
57.57
66.24
75.16
84.38
93.75
103.09
112.38
121.92
132.06
142.84
153.47
162.30
167.26
166.59
159.54
146.52
128.74
107.73
84.97
61.97
40.53
22.86
11.23
7.26
11.42
22.86
39.98
61.11
84.93
110.40
136.34
161.20
183.17
200.69
212.97
220.27
223.62
224.30
223.31
221.21
218.17
214.23
209.47
204.09
198.26
192.05
185.36
177.89
169.28
159.18
147.45
134.23
120.03
105.58
91.60
78.49
66.15
53.97
41.04
26.54
10.15
-7.58
-25.17
-40.42
-50.87
-54.42
-49.94
-37.60
-18.87
3.88
27.95
50.94
71.15
87.66
100.17
108.80
113.86
115.78
115.12
112.54
108.72
104.27
99.64
95.06
90.65
86.48
82.68
79.45
76.83
74.61
72.28
69.03
64.12
57.15
48.26
38.11
27.58
17.46
8.13
-0.53
-9.07
-18.26
-28.84
-41.24
-55.20
-69.56
-82.22
-90.49
-91.83
-84.61
-68.84
-46.23
-19.82
6.96
31.16
51.01
65.98
76.48
83.32
87.22
88.68
87.97
85.38
81.37
76.58
71.67
67.11
63.08
59.49
56.19
53.11
50.35
48.04
46.16
44.34
41.91
38.07
32.20
24.16
14.40
3.85
-6.42
-15.59
-23.49
-30.66
-38.20
-47.42
-59.17
-73.40
-88.71
-102.55
-111.78
-113.56
-106.37
-90.46
-67.84
-41.56
-14.77
10.04
31.49
49.06
62.76
72.70
78.92
81.58
81.07
78.20
74.06
69.69
65.83
62.72
60.09
57.51
54.59
51.23
47.65
44.22
41.17
38.45
35.60
31.95
26.84
19.92
11.29
1.49
-8.67
-18.39
-27.15
-34.86
-41.88
-48.85
-56.62
-65.95
-77.26
-90.25
-103.66
-115.28
-122.29
-122.10
-113.18
-95.66
-71.47
-43.68
-15.65
9.91
31.47
48.67
61.77
71.21
77.20
79.79
79.16
75.84
70.85
65.41
60.60
57.01
54.61
52.85
51.05
48.70
45.70
42.33
38.99
35.94
33.11
30.04
26.05
20.55
13.32
4.65
-4.74
-14.00
-22.52
-30.09
-36.97
-43.67
-50.76
-58.70
-67.86
-78.36
-90.03
-102.07
-112.91
-120.34
-121.98
-116.07
-102.17
-81.46
-56.47
-30.34
-5.96
14.71
30.79
42.25
49.49
52.92
52.92
49.96
44.80
38.58
32.58
27.88
24.96
23.60
23.07
22.50
21.36
19.58
17.48
15.43
13.49
11.25
8.02
3.10
-3.77
-12.28
-21.60
-30.70
-38.82
-45.65
-51.53
-57.21
-63.64
-71.64
-81.58
-93.16
-105.24
-115.86
-122.59
-123.11
-115.90
-100.85
-79.34
-53.90
-27.49
-2.74
18.52
35.49
48.07
56.59
61.50
63.24
62.26
59.16
54.68
49.69
45.02
41.25
38.59
36.81
35.43
33.91
31.87
29.21
26.07
22.66
19.12
15.40
11.19
6.11
-0.24
-8.01
-17.00
-26.65
-36.20
-44.90
-52.35
-58.59
-64.17
-69.93
-76.76
-85.28
-95.58
-107.02
-118.11
-126.66
-130.18
-126.54
-114.67
-95.07
-69.76
-41.76
-14.25
10.26
30.39
45.87
57.14
64.96
69.94
72.55
73.08
71.87
69.32
65.96
62.31
58.84
55.82
53.32
51.23
49.32
47.36
45.15
42.59
39.62
36.17
32.19
27.53
22.08
15.67
8.20
-0.27
-9.50
-19.06
-28.39
-37.00
-44.65
-51.45
-57.89
-64.79
-72.96
-82.96
-94.70
-107.20
-118.51
-126.05
-127.28
-120.48
-105.36
-83.28
-56.83
-29.14
-3.07
19.43
37.39
50.70
59.80
65.33
67.98
68.41
67.17
64.70
61.40
57.61
53.71
50.09
47.13
45.06
43.81
43.04
42.15
40.57
37.94
34.26
29.79
24.89
19.78
14.40
8.50
1.74
-6.00
-14.55
-23.47
-32.16
-40.18
-47.33
-53.78
-59.93
-66.33
-73.57
-82.14
-92.27
-103.66
-115.27
-125.20
-130.92
-129.94
-120.62
-102.80
-78.11
-49.52
-20.50
5.89
27.74
44.39
56.21
64.02
68.60
70.50
70.08
67.66
63.74
59.05
54.40
50.48
47.70
46.08
45.31
44.92
44.42
43.44
41.75
39.29
36.06
32.14
27.58
22.35
16.41
9.70
2.25
-5.84
-14.30
-22.85
-31.20
-39.17
-46.67
-53.70
-60.40
-67.08
-74.30
-82.75
-92.93
-104.69
-116.76
-126.72
-131.49
-128.27
-115.62
-94.06
-66.09
-35.38
-5.67
20.19
40.78
55.97
66.36
72.77
75.82
75.92
73.45
69.08
63.71
58.40
54.01
50.98
49.24
48.38
47.82
47.12
46.07
44.56
42.61
40.18
37.20
33.56
29.17
23.93
17.79
10.68
2.67
-6.08
-15.19
-24.20
-32.65
-40.28
-47.07
-53.35
-59.73
-66.99
-75.85
-86.63
-98.84
-110.99
-120.60
-124.79
-121.08
-108.33
-87.22
-60.19
-30.68
-2.05
23.18
43.75
59.39
70.28
76.70
78.81
76.92
71.73
64.45
56.62
49.71
44.70
41.84
40.67
40.34
40.03
39.18
37.69
35.76
33.63
31.38
28.76
25.29
20.47
14.06
6.16
-2.71
-11.86
-20.66
-28.74
-36.09
-42.92
-49.64
-56.70
-64.57
-73.71
-84.35
-96.19
-108.08
-117.91
-123.02
-120.97
-110.33
-91.44
-66.29
-38.01
-9.88
15.55
36.80
53.32
65.11
72.26
74.87
73.23
68.05
60.57
52.36
44.95
39.39
35.94
34.18
33.25
32.33
30.99
29.23
27.38
25.72
24.14
22.05
18.60
13.01
5.04
-4.84
-15.62
-26.11
-35.42
-43.25
-49.94
-56.23
-63.03
-71.15
-81.10
-92.88
-105.75
-118.02
-127.19
-130.42
-125.39
-111.07
-88.27
-59.46
-28.10
2.31
29.04
50.59
66.61
77.57
84.26
87.43
87.72
85.66
81.88
77.07
72.06
67.58
64.12
61.76
60.16
58.75
56.96
54.48
51.35
47.88
44.36
40.85
36.99
32.12
25.56
16.98
6.60
-4.81
-16.27
-26.89
-36.23
-44.35
-51.72
-58.98
-66.84
-75.97
-86.83
-99.45
-113.02
-125.64
-134.49
-136.50
-129.35
-112.40
-87.01
-56.22
-23.81
6.81
33.27
54.54
70.57
81.87
89.08
92.82
93.68
92.23
89.16
85.12
80.81
76.76
73.38
70.76
68.79
67.10
65.28
62.93
59.87
56.14
51.88
47.28
42.39
37.03
30.87
23.60
15.06
5.44
-4.81
-15.10
-24.94
-34.07
-42.53
-50.52
-58.32
-66.30
-74.93
-84.73
-96.03
-108.51
-120.76
-130.22
-133.75
-128.57
-113.40
-89.08
-58.44
-25.42
6.10
33.27
54.75
70.48
81.18
87.76
91.05
91.66
90.12
86.95
82.79
78.27
73.91
70.08
66.90
64.34
62.24
60.43
58.71
56.90
54.77
52.05
48.50
43.97
38.46
32.05
24.90
17.11
8.77
-0.07
-9.30
-18.75
-28.13
-37.17
-45.62
-53.42
-60.69
-67.86
-75.64
-84.80
-95.83
-108.44
-121.13
-131.20
-135.40
-130.92
-116.41
-92.69
-62.48
-29.64
2.02
29.69
51.92
68.50
79.91
86.87
90.06
90.11
87.71
83.70
78.92
74.11
69.74
65.99
62.84
60.20
58.00
56.23
54.83
53.56
52.05
49.86
46.60
42.10
36.43
29.85
22.63
15.01
7.09
-1.14
-9.66
-18.40
-27.14
-35.52
-43.20
-49.98
-56.00
-61.79
-68.19
-76.11
-86.13
-97.99
-110.35
-120.82
-126.37
-124.31
-113.10
-93.00
-66.07
-35.60
-5.15
22.30
44.92
61.95
73.49
80.03
82.23
80.81
76.58
70.47
63.53
56.75
50.98
46.73
44.16
43.01
42.72
42.61
42.12
40.89
38.90
36.29
33.24
29.74
25.58
20.37
13.79
5.79
-3.33
-12.95
-22.35
-30.96
-38.49
-45.07
-51.12
-57.30
-64.31
-72.77
-82.92
-94.31
-105.63
-114.68
-118.82
-115.74
-104.22
-84.72
-59.30
-31.05
-3.22
21.60
41.89
57.13
67.40
73.04
74.46
72.18
66.99
59.99
52.47
45.66
40.43
37.08
35.39
34.72
34.37
33.76
32.59
30.82
28.56
25.92
22.81
19.01
14.12
7.83
0.05
-8.96
-18.65
-28.28
-37.16
-44.94
-51.66
-57.80
-64.07
-71.31
-80.16
-90.86
-102.97
-115.06
-124.88
-129.63
-126.84
-115.10
-94.76
-67.87
-37.65
-7.54
19.64
42.19
59.54
71.80
79.48
83.16
83.51
81.26
77.26
72.35
67.26
62.54
58.49
55.25
52.82
51.08
49.85
48.82
47.63
45.90
43.36
39.92
35.62
30.60
24.91
18.49
11.17
2.82
-6.50
-16.42
-26.39
-35.82
-44.29
-51.75
-58.50
-65.19
-72.63
-81.65
-92.69
-105.46
-118.60
-129.71
-135.77
-134.01
-122.89
-102.64
-75.36
-44.34
-13.17
15.19
38.92
57.33
70.58
79.29
84.21
86.06
85.56
83.31
79.96
76.01
71.92
68.05
64.61
61.72
59.33
57.35
55.62
53.89
51.93
49.45
46.23
42.13
37.15
31.35
24.84
17.65
9.73
1.09
-8.16
-17.68
-27.01
-35.70
-43.52
-50.60
-57.34
-64.36
-72.31
-81.74
-92.86
-105.26
-117.62
-127.73
-132.80
-130.20
-118.44
-97.77
-70.31
-39.48
-8.97
18.20
40.31
56.95
68.61
76.15
80.42
82.03
81.48
79.21
75.75
71.65
67.52
63.86
60.98
58.94
57.58
56.55
55.49
54.03
51.91
48.99
45.22
40.66
35.40
29.48
22.88
15.55
7.43
-1.40
-10.66
-19.93
-28.77
-36.94
-44.45
-51.61
-58.88
-66.76
-75.72
-86.14
-98.02
-110.69
-122.50
-130.84
-132.68
-125.60
-108.76
-83.46
-52.89
-21.10
8.22
32.73
51.64
65.37
74.82
80.75
83.64
83.74
81.43
77.39
72.53
67.81
63.91
61.10
59.23
57.89
56.64
55.12
53.17
50.79
48.02
44.81
41.08
36.65
31.36
25.11
17.90
9.82
1.09
-8.02
-17.20
-26.13
-34.56
-42.34
-49.57
-56.53
-63.79
-72.01
-81.77
-93.16
-105.43
-116.83
-124.75
-126.40
-119.62
-103.77
-80.07
-51.30
-21.02
7.48
31.92
51.27
65.51
75.12
80.64
82.54
81.27
77.46
72.05
66.16
60.84
56.81
54.21
52.66
51.42
49.78
47.32
44.08
40.47
36.93
33.65
30.42
26.65
21.71
15.20
7.15
-1.91
-11.20
-19.95
-27.67
-34.33
-40.30
-46.24
-52.92
-61.04
-71.02
-82.79
-95.52
-107.53
-116.41
-119.56
-114.91
-101.65
-80.70
-54.44
-26.07
1.27
25.25
44.63
59.03
68.57
73.52
74.21
71.18
65.33
57.90
50.33
43.88
39.32
36.70
35.51
34.85
33.91
32.16
29.58
26.46
23.19
19.99
16.73
12.93
8.00
1.49
-6.62
-15.86
-25.38
-34.31
-42.02
-48.45
-54.04
-59.58
-65.94
-73.85
-83.65
-95.12
-107.25
-118.17
-125.33
-126.09
-118.47
-101.97
-77.87
-49.01
-18.95
9.03
32.72
51.21
64.65
73.76
79.33
82.01
82.32
80.79
77.98
74.54
71.07
67.97
65.45
63.46
61.87
60.53
59.26
57.88
56.14
53.75
50.46
46.17
40.98
35.11
28.77
22.04
14.82
6.96
-1.58
-10.65
-19.91
-28.94
-37.41
-45.19
-52.37
-59.29
-66.51
-74.74
-84.60
-96.18
-108.61
-119.86
-127.02
-127.18
-118.43
-100.62
-75.53
-46.35
-16.64
10.57
33.43
51.31
64.47
73.60
79.46
82.69
83.83
83.31
81.55
78.94
75.86
72.65
69.57
66.79
64.42
62.50
60.98
59.69
58.32
56.47
53.72
49.76
44.54
38.27
31.43
24.49
17.80
11.40
5.01
-1.75
-9.21
-17.41
-26.04
-34.58
-42.49
-49.43
-55.45
-61.01
-66.93
-74.14
-83.27
-94.19
-105.68
-115.43
-120.47
-118.12
-106.90
-87.11
-60.89
-31.47
-2.27
24.06
45.98
63.10
75.71
84.36
89.61
91.98
92.06
90.54
88.17
85.61
83.22
81.06
78.95
76.65
74.07
71.36
68.82
66.75
65.14
63.63
61.54
58.12
52.91
45.92
37.71
29.16
21.12
14.10
8.09
2.57
-3.23
-9.94
-17.84
-26.71
-35.98
-44.92
-52.95
-59.89
-65.95
-71.79
-78.32
-86.37
-96.36
-107.73
-118.84
-127.04
-129.36
-123.47
-108.51
-85.56
-57.33
-27.40
0.91
25.22
44.44
58.47
67.77
72.97
74.68
73.52
70.22
65.60
60.51
55.65
51.45
48.11
45.62
43.87
42.74
42.02
41.47
40.72
39.36
37.04
33.55
28.93
23.43
17.40
11.12
4.74
-1.83
-8.78
-16.25
-24.24
-32.56
-40.87
-48.87
-56.39
-63.46
-70.31
-77.33
-85.06
-93.96
-104.16
-115.09
-125.24
-132.34
-133.85
-127.81
-113.58
-92.19
-66.12
-38.55
-12.46
9.96
27.68
40.58
49.10
53.81
55.27
53.97
50.47
45.52
40.01
34.95
31.18
29.18
28.93
29.95
31.49
32.77
33.27
32.71
31.17
28.80
25.77
22.12
17.75
12.51
6.32
-0.70
-8.21
-15.76
-22.91
-29.40
-35.27
-40.83
-46.57
-53.04
-60.72
-69.91
-80.51
-91.81
-102.28
-109.76
-111.86
-106.61
-93.27
-72.58
-46.71
-18.65
8.63
32.77
52.47
67.36
77.72
84.18
87.45
88.24
87.20
84.87
81.72
78.14
74.44
70.88
67.69
65.08
63.14
61.84
60.91
59.86
58.14
55.24
50.92
45.25
38.62
31.51
24.32
17.26
10.22
2.99
-4.66
-12.78
-21.23
-29.75
-38.01
-45.81
-53.09
-59.95
-66.74
-74.03
-82.46
-92.41
-103.58
-114.60
-123.13
-126.34
-121.85
-108.58
-87.24
-60.22
-30.79
-2.22
23.03
43.66
59.42
70.73
78.28
82.74
84.68
84.64
83.19
80.92
78.38
75.93
73.65
71.37
68.86
66.01
62.97
60.11
57.78
56.06
54.56
52.57
49.32
44.32
37.69
30.06
22.30
15.16
8.94
3.35
-2.22
-8.43
-15.66
-23.81
-32.43
-40.91
-48.76
-55.74
-62.04
-68.13
-74.74
-82.61
-92.17
-103.09
-114.03
-122.62
-126.02
-121.71
-108.46
-86.87
-59.25
-28.99
0.51
26.65
48.00
64.29
75.92
83.54
87.80
89.29
88.65
86.54
83.61
80.41
77.26
74.23
71.23
68.21
65.24
62.53
60.32
58.75
57.64
56.54
54.76
51.70
46.98
40.62
33.09
25.07
17.26
10.09
3.57
-2.70
-9.30
-16.66
-24.86
-33.50
-41.93
-49.48
-55.83
-61.18
-66.18
-71.80
-78.98
-88.27
-99.49
-111.38
-121.72
-127.65
-126.51
-116.70
-98.29
-73.15
-44.36
-15.34
11.07
33.12
50.18
62.36
70.13
74.02
74.55
72.38
68.27
63.09
57.70
52.73
48.56
45.37
43.14
41.77
41.12
40.93
40.82
40.33
38.99
36.46
32.62
27.63
21.76
15.35
8.60
1.57
-5.73
-13.33
-21.17
-29.05
-36.73
-44.02
-50.88
-57.46
-64.15
-71.46
-79.93
-89.80
-100.74
-111.58
-120.33
-124.56
-122.15
-111.97
-94.42
-71.41
-45.73
-20.35
2.44
21.25
35.60
45.55
51.34
53.26
51.68
47.23
40.84
33.72
27.05
21.77
18.31
16.61
16.21
16.50
16.92
17.12
16.96
16.40
15.37
13.67
11.01
7.03
1.50
-5.51
-13.58
-22.00
-29.95
-36.83
-42.43
-47.03
-51.36
-56.32
-62.79
-71.25
-81.55
-92.70
-102.82
-109.49
-110.28
-103.49
-88.70
-66.99
-40.70
-12.75
14.06
37.64
56.83
71.32
81.39
87.60
90.57
90.88
89.04
85.54
80.92
75.75
70.66
66.19
62.75
60.50
59.32
58.89
58.66
58.04
56.45
53.53
49.17
43.59
37.17
30.29
23.15
15.73
7.90
-0.45
-9.25
-18.24
-27.05
-35.34
-42.96
-49.99
-56.69
-63.48
-70.93
-79.69
-90.15
-102.15
-114.49
-124.93
-130.56
-128.67
-117.72
-97.98
-71.52
-41.58
-11.59
15.69
38.62
56.64
69.90
78.98
84.58
87.42
88.26
87.78
86.53
84.85
82.92
80.73
78.22
75.35
72.21
69.01
66.03
63.47
61.24
58.98
56.11
52.07
46.63
39.97
32.61
25.17
18.01
11.13
4.17
-3.31
-11.57
-20.52
-29.74
-38.67
-46.88
-54.20
-60.85
-67.38
-74.63
-83.42
-94.22
-106.66
-119.20
-129.22
-133.55
-129.55
-116.02
-93.79
-65.49
-34.73
-4.96
21.32
42.92
59.72
72.18
80.94
86.61
89.74
90.96
90.90
90.14
89.04
87.67
85.91
83.56
80.59
77.19
73.81
70.89
68.67
66.95
65.17
62.58
58.54
52.87
45.86
38.17
30.54
23.49
17.10
11.03
4.66
-2.54
-10.81
-19.93
-29.33
-38.29
-46.26
-53.04
-58.94
-64.61
-71.02
-79.07
-89.24
-101.26
-113.72
-124.19
-129.67
-127.45
-116.08
-95.90
-69.11
-39.03
-9.18
17.65
39.85
56.90
69.01
76.75
80.71
81.54
79.97
76.80
72.85
68.79
65.04
61.72
58.71
55.85
53.03
50.31
47.81
45.65
43.70
41.59
38.75
34.64
29.01
22.03
14.30
6.53
-0.70
-7.21
-13.29
-19.47
-26.25
-33.80
-41.92
-50.10
-57.78
-64.57
-70.39
-75.55
-80.60
-86.30
-93.33
-102.03
-112.00
-121.84
-129.25
-131.49
-126.22
-112.34
-90.52
-63.04
-33.15
-4.13
21.56
42.58
58.64
70.06
77.35
81.07
81.75
80.01
76.69
72.66
68.72
65.40
62.84
60.92
59.41
58.14
57.11
56.39
55.99
55.64
54.78
52.69
48.81
42.93
35.41
27.02
18.69
11.10
4.47
-1.46
-7.35
-13.80
-21.11
-29.18
-37.54
-45.58
-52.89
-59.31
-65.09
-70.81
-77.25
-85.19
-95.02
-106.38
-117.84
-127.00
-130.97
-127.22
-114.49
-93.37
-66.18
-36.29
-7.12
18.71
39.82
55.98
67.67
75.62
80.49
82.80
83.05
81.78
79.56
76.93
74.26
71.64
69.01
66.30
63.51
60.86
58.57
56.75
55.20
53.44
50.84
46.91
41.49
34.88
27.67
20.52
13.81
7.55
1.41
-5.15
-12.51
-20.74
-29.51
-38.25
-46.37
-53.54
-59.82
-65.68
-71.90
-79.28
-88.36
-99.02
-110.22
-119.93
-125.49
-124.28
-114.60
-96.34
-71.16
-42.05
-12.43
14.70
37.45
55.15
68.02
76.75
82.12
84.81
85.44
84.59
82.82
80.64
78.35
76.05
73.65
71.04
68.25
65.47
63.00
61.01
59.37
57.56
54.94
50.96
45.47
38.81
31.61
24.51
17.84
11.59
5.38
-1.20
-8.47
-16.50
-25.08
-33.81
-42.21
-49.93
-56.80
-63.07
-69.38
-76.62
-85.59
-96.48
-108.50
-119.66
-127.22
-128.34
-121.11
-105.18
-81.99
-54.29
-25.38
1.75
25.06
43.58
57.28
66.65
72.34
74.99
75.13
73.25
69.88
65.58
60.97
56.61
52.93
50.12
48.12
46.65
45.38
43.95
42.13
39.73
36.66
32.85
28.23
22.76
16.44
9.29
1.40
-7.12
-16.12
-25.41
-34.74
-43.80
-52.29
-60.02
-66.93
-73.26
-79.50
-86.32
-94.42
-104.16
-115.20
-126.20
-134.87
-138.47
-134.60
-122.04
-101.33
-74.70
-45.39
-16.76
8.58
29.23
44.89
55.99
63.17
67.01
67.97
66.53
63.26
58.90
54.28
50.16
47.08
45.24
44.56
44.71
45.30
45.89
46.05
45.45
43.82
41.01
37.01
31.96
26.04
19.46
12.37
4.91
-2.83
-10.75
-18.71
-26.57
-34.18
-41.42
-48.29
-54.90
-61.57
-68.83
-77.35
-87.59
-99.42
-111.77
-122.46
-128.67
-127.67
-117.78
-99.03
-73.27
-43.59
-13.42
14.37
37.99
56.74
70.71
80.36
86.28
89.14
89.67
88.63
86.74
84.51
82.16
79.66
76.86
73.71
70.36
67.12
64.38
62.32
60.83
59.43
57.44
54.19
49.34
43.01
35.72
28.17
20.90
14.05
7.37
0.39
-7.31
-15.78
-24.72
-33.62
-41.98
-49.56
-56.44
-63.03
-69.95
-77.91
-87.46
-98.63
-110.62
-121.50
-128.58
-128.99
-120.72
-103.37
-78.46
-48.99
-18.48
9.97
34.38
53.94
68.74
79.21
85.96
89.52
90.57
89.89
88.29
86.48
84.87
83.55
82.31
80.87
79.01
76.75
74.27
71.85
69.64
67.56
65.27
62.25
58.04
52.47
45.73
38.30
30.80
23.69
17.09
10.75
4.20
-3.05
-11.17
-20.00
-29.01
-37.56
-45.13
-51.56
-57.12
-62.53
-68.74
-76.72
-87.00
-99.29
-112.13
-123.03
-128.94
-127.09
-115.97
-95.91
-69.04
-38.70
-8.41
18.95
41.63
59.08
71.47
79.42
83.60
84.70
83.45
80.60
76.88
72.94
69.17
65.74
62.69
60.00
57.70
55.85
54.47
53.43
52.40
50.85
48.23
44.13
38.46
31.52
23.89
16.17
8.78
1.76
-5.17
-12.43
-20.27
-28.63
-37.19
-45.49
-53.14
-60.09
-66.53
-72.93
-79.96
-88.32
-98.49
-110.37
-122.88
-133.90
-140.55
-140.05
-130.66
-112.44
-87.37
-58.77
-30.21
-4.54
16.61
32.82
44.42
51.89
55.64
56.02
53.54
48.99
43.49
38.17
33.92
31.26
30.18
30.37
31.34
32.55
33.55
33.96
33.55
32.20
29.85
26.49
22.12
16.74
10.37
3.16
-4.66
-12.77
-20.80
-28.47
-35.59
-42.07
-47.97
-53.54
-59.20
-65.61
-73.44
-83.06
-94.03
-104.91
-113.28
-116.33
-111.82
-98.77
-77.98
-51.76
-23.22
4.60
29.36
49.76
65.37
76.37
83.25
86.63
87.26
85.95
83.46
80.41
77.21
74.04
70.91
67.83
64.83
62.11
59.84
58.14
56.88
55.66
53.87
50.93
46.49
40.56
33.55
26.04
18.54
11.31
4.27
-2.86
-10.40
-18.46
-26.91
-35.38
-43.48
-50.90
-57.67
-64.15
-71.01
-79.04
-88.75
-100.06
-111.89
-122.19
-128.31
-127.66
-118.56
-100.85
-76.04
-46.88
-16.68
11.63
36.02
55.54
70.23
80.63
87.50
91.54
93.28
93.20
91.71
89.30
86.44
83.52
80.77
78.25
75.91
73.72
71.70
69.87
68.21
66.47
64.21
60.96
56.40
50.58
43.88
36.88
30.08
23.67
17.49
11.11
4.10
-3.76
-12.42
-21.51
-30.49
-38.90
-46.44
-53.22
-59.79
-67.05
-75.96
-87.02
-99.78
-112.52
-122.45
-126.40
-121.85
-107.85
-85.45
-57.42
-27.33
1.48
26.64
47.04
62.56
73.56
80.51
83.84
84.01
81.66
77.58
72.64
67.59
62.96
59.00
55.76
53.23
51.28
49.75
48.39
46.87
44.80
41.96
38.20
33.59
28.23
22.22
15.60
8.34
0.44
-7.98
-16.67
-25.27
-33.50
-41.20
-48.48
-55.65
-63.19
-71.61
-81.33
-92.39
-104.24
-115.50
-124.05
-127.47
-123.76
-112.01
-92.90
-68.51
-41.74
-15.51
7.94
27.25
41.87
51.69
56.81
57.50
54.29
48.13
40.34
32.36
25.44
20.35
17.17
15.48
14.61
14.02
13.50
13.10
12.92
12.79
12.13
10.06
5.79
-1.01
-9.96
-20.08
-30.17
-39.27
-46.95
-53.35
-59.01
-64.70
-71.10
-78.72
-87.67
-97.45
-106.79
-113.75
-116.05
-111.80
-100.16
-81.78
-58.67
-33.62
-9.44
11.78
28.87
41.45
49.57
53.44
53.31
49.72
43.60
36.30
29.33
23.95
20.80
19.80
20.29
21.46
22.68
23.68
24.46
25.02
25.15
24.31
21.84
17.21
10.32
1.58
-8.16
-17.89
-26.75
-34.28
-40.61
-46.41
-52.77
-60.78
-71.08
-83.30
-95.85
-106.05
-110.77
-107.46
-94.94
-73.93
-46.80
-16.91
12.35
38.38
59.71
75.95
87.42
94.78
98.77
100.08
99.36
97.23
94.25
90.88
87.44
84.03
80.62
77.10
73.40
69.52
65.54
61.56
57.68
53.90
50.11
45.97
41.02
34.77
26.83
17.14
6.05
-5.71
-17.22
-27.70
-36.75
-44.50
-51.55
-58.83
-67.33
-77.75
-90.17
-103.72
-116.48
-125.74
-128.65
-123.04
-108.22
-85.21
-56.57
-25.66
4.30
30.83
52.58
69.22
81.16
89.17
94.15
96.86
97.90
97.66
96.30
93.87
90.48
86.34
81.83
77.36
73.29
69.70
66.49
63.32
59.86
55.86
51.22
45.96
40.13
33.71
26.62
18.73
10.01
0.59
-9.25
-19.09
-28.52
-37.32
-45.45
-53.16
-60.87
-69.15
-78.58
-89.50
-101.74
-114.25
-125.06
-131.49
-130.84
-121.28
-102.57
-76.31
-45.53
-13.85
15.50
40.35
59.80
74.00
83.65
89.65
92.83
93.84
93.21
91.34
88.56
85.12
81.26
77.16
73.05
69.14
65.66
62.73
60.34
58.29
56.22
53.66
50.20
45.55
39.72
32.93
25.57
18.07
10.71
3.55
-3.56
-10.91
-18.73
-27.10
-35.86
-44.65
-53.04
-60.71
-67.67
-74.34
-81.57
-90.32
-101.11
-113.48
-125.64
-134.65
-137.22
-130.79
-114.49
-89.56
-58.96
-26.43
4.55
31.53
53.31
69.65
80.87
87.53
90.26
89.85
87.25
83.46
79.35
75.49
72.03
68.81
65.59
62.24
58.85
55.73
53.13
51.11
49.35
47.24
44.10
39.43
33.21
25.87
18.13
10.64
3.70
-2.80
-9.33
-16.37
-24.11
-32.37
-40.70
-48.58
-55.72
-62.15
-68.20
-74.47
-81.62
-90.19
-100.28
-111.26
-121.57
-128.85
-130.46
-124.24
-109.32
-86.47
-58.05
-27.33
2.30
28.15
48.66
63.46
73.11
78.62
81.03
81.17
79.55
76.53
72.43
67.70
62.88
58.51
54.96
52.39
50.69
49.61
48.77
47.75
46.16
43.65
40.04
35.32
29.64
23.28
16.50
9.47
2.24
-5.20
-12.89
-20.79
-28.74
-36.56
-43.97
-50.85
-57.20
-63.27
-69.63
-77.00
-85.96
-96.52
-107.67
-117.33
-122.75
-121.26
-111.26
-92.79
-67.65
-38.86
-9.79
16.70
38.80
55.74
67.63
75.00
78.60
79.17
77.46
74.19
70.04
65.63
61.40
57.64
54.46
51.87
49.84
48.26
46.95
45.67
44.06
41.74
38.42
33.98
28.52
22.34
15.80
9.19
2.65
-3.91
-10.64
-17.74
-25.28
-33.14
-41.06
-48.67
-55.73
-62.18
-68.29
-74.63
-81.96
-90.82
-101.15
-111.85
-120.76
-125.05
-122.10
-110.43
-90.33
-63.90
-34.44
-5.47
20.16
40.84
56.11
66.37
72.39
75.00
74.91
72.75
69.10
64.54
59.63
54.93
50.89
47.81
45.77
44.60
43.97
43.47
42.65
41.15
38.67
35.12
30.54
25.16
19.28
13.17
6.98
0.65
-5.98
-13.08
-20.66
-28.57
-36.51
-44.16
-51.31
-57.96
-64.38
-71.05
-78.62
-87.53
-97.72
-108.26
-117.25
-122.20
-120.63
-110.98
-93.13
-68.62
-40.22
-11.23
15.39
37.57
54.32
65.67
72.26
75.08
75.11
73.23
70.10
66.22
61.97
57.71
53.78
50.52
48.14
46.67
45.92
45.47
44.84
43.56
41.34
38.06
33.81
28.76
23.12
17.01
10.52
3.64
-3.63
-11.24
-19.10
-27.04
-34.85
-42.34
-49.39
-55.97
-62.19
-68.33
-74.89
-82.53
-91.71
-102.38
-113.48
-122.89
-127.75
-125.33
-114.00
-93.92
-67.12
-36.90
-6.87
20.05
42.12
58.81
70.42
77.56
80.91
81.06
78.70
74.65
69.85
65.20
61.36
58.59
56.78
55.64
54.84
54.19
53.58
52.93
52.02
50.51
48.00
44.15
38.89
32.41
25.17
17.69
10.38
3.40
-3.40
-10.33
-17.72
-25.71
-34.18
-42.76
-51.02
-58.64
-65.61
-72.27
-79.34
-87.65
-97.76
-109.37
-121.03
-130.20
-133.78
-129.12
-115.06
-92.35
-63.53
-32.11
-1.53
25.61
47.87
64.81
76.61
83.77
86.95
86.93
84.61
80.91
76.69
72.54
68.81
65.60
62.87
60.57
58.69
57.24
56.14
55.18
53.91
51.83
48.49
43.71
37.67
30.81
23.68
16.73
10.11
3.69
-2.89
-9.96
-17.75
-26.24
-35.16
-44.06
-52.50
-60.11
-66.87
-73.17
-79.77
-87.64
-97.43
-108.92
-120.68
-130.05
-133.83
-129.29
-115.10
-91.91
-62.24
-29.66
2.21
30.52
53.57
70.80
82.39
88.94
91.31
90.40
87.20
82.70
77.80
73.26
69.53
66.76
64.82
63.45
62.35
61.36
60.41
59.48
58.42
56.86
54.26
50.12
44.23
36.83
28.60
20.37
12.77
5.94
-0.50
-7.22
-14.82
-23.47
-32.86
-42.28
-50.97
-58.53
-65.00
-70.97
-77.41
-85.35
-95.47
-107.65
-120.55
-131.67
-137.81
-135.93
-124.25
-102.91
-74.05
-41.14
-8.05
21.98
46.89
65.87
79.08
87.20
91.07
91.60
89.69
86.21
81.99
77.75
73.95
70.77
68.12
65.78
63.56
61.40
59.41
57.71
56.25
54.70
52.49
49.05
44.07
37.64
30.29
22.67
15.32
8.43
1.76
-5.19
-12.86
-21.40
-30.56
-39.79
-48.47
-56.19
-62.89
-68.92
-75.00
-82.06
-90.97
-102.02
-114.56
-126.66
-135.36
-137.36
-130.10
-112.72
-86.49
-54.54
-20.88
10.70
37.53
58.35
73.14
82.55
87.48
88.78
87.25
83.71
79.04
74.10
69.63
66.01
63.26
61.08
59.14
57.24
55.44
53.90
52.69
51.56
49.95
47.17
42.79
36.82
29.77
22.36
15.23
8.61
2.28
-4.29
-11.62
-19.94
-29.06
-38.48
-47.54
-55.71
-62.79
-69.06
-75.20
-82.17
-90.81
-101.41
-113.24
-124.37
-131.95
-132.93
-125.05
-107.65
-82.00
-50.99
-18.25
12.76
39.51
60.64
75.80
85.33
89.91
90.44
87.94
83.52
78.29
73.19
68.85
65.48
62.98
61.08
59.53
58.19
56.99
55.87
54.64
52.96
50.43
46.70
41.67
35.50
28.55
21.31
14.16
7.26
0.55
-6.26
-13.45
-21.15
-29.28
-37.54
-45.52
-52.88
-59.49
-65.53
-71.50
-78.15
-86.30
-96.46
-108.36
-120.57
-130.49
-134.88
-130.88
-117.04
-93.98
-64.27
-31.60
0.22
28.35
51.19
68.35
80.12
87.07
89.84
89.15
85.92
81.24
76.20
71.69
68.12
65.50
63.56
61.98
60.58
59.40
58.51
57.85
57.11
55.74
53.18
49.04
43.38
36.62
29.42
22.47
16.19
10.53
5.05
-0.93
-7.99
-16.33
-25.69
-35.43
-44.79
-53.23
-60.63
-67.38
-74.27
-82.25
-92.09
-103.89
-116.72
-128.45
-136.10
-136.60
-127.81
-109.28
-82.58
-50.86
-17.92
12.77
38.81
59.07
73.44
82.48
86.97
87.75
85.65
81.53
76.24
70.60
65.33
60.97
57.76
55.74
54.71
54.34
54.15
53.63
52.26
49.64
45.56
40.11
33.66
26.64
19.40
12.08
4.58
-3.31
-11.71
-20.55
-29.53
-38.25
-46.38
-53.78
-60.56
-67.00
-73.60
-80.97
-89.69
-100.08
-111.72
-123.10
-131.64
-134.18
-128.06
-112.12
-87.35
-56.73
-24.35
5.89
31.28
50.73
64.55
73.68
79.15
81.64
81.52
79.11
74.96
69.86
64.76
60.50
57.52
55.77
54.77
53.87
52.49
50.38
47.60
44.38
40.94
37.25
33.02
27.82
21.30
13.34
4.25
-5.40
-14.96
-23.91
-32.03
-39.45
-46.54
-53.77
-61.68
-70.78
-81.44
-93.61
-106.51
-118.38
-126.64
-128.43
-121.56
-105.34
-81.01
-51.43
-20.26
9.09
34.23
54.04
68.48
78.05
83.36
84.92
83.22
78.93
72.99
66.59
60.87
56.71
54.36
53.51
53.37
53.05
51.86
49.53
46.23
42.33
38.15
33.75
28.86
23.00
15.72
6.87
-3.26
-14.02
-24.52
-33.99
-42.02
-48.72
-54.60
-60.51
-67.30
-75.70
-86.04
-97.96
-110.22
-120.59
-126.29
-124.60
-113.82
-93.97
-66.94
-36.03
-5.00
22.92
45.75
62.84
74.55
81.67
85.03
85.25
82.89
78.60
73.19
67.67
62.95
59.60
57.65
56.61
55.71
54.25
51.86
48.59
44.80
40.81
36.75
32.37
27.13
20.49
12.15
2.30
-8.34
-18.80
-28.20
-36.08
-42.60
-48.42
-54.47
-61.67
-70.68
-81.74
-94.46
-107.58
-118.99
-125.94
-125.67
-116.41
-97.99
-72.17
-42.16
-11.66
16.13
39.20
56.79
69.14
76.87
80.72
81.31
79.29
75.44
70.69
66.00
62.15
59.51
57.94
56.93
55.82
54.09
51.51
48.17
44.40
40.48
36.51
32.28
27.35
21.20
13.50
4.28
-5.92
-16.25
-25.78
-33.93
-40.66
-46.57
-52.66
-60.03
-69.47
-81.15
-94.39
-107.54
-118.15
-123.37
-120.70
-108.81
-88.07
-60.62
-29.87
0.50
27.45
49.16
65.16
75.88
82.23
85.13
85.35
83.55
80.34
76.35
72.19
68.40
65.34
63.12
61.64
60.58
59.52
58.02
55.69
52.34
47.96
42.75
37.01
31.02
24.90
18.56
11.75
4.21
-4.15
-13.19
-22.48
-31.50
-39.82
-47.23
-53.85
-60.09
-66.60
-74.12
-83.29
-94.33
-106.63
-118.54
-127.41
-130.22
-124.51
-109.25
-85.40
-55.72
-23.98
6.13
31.93
52.13
66.67
76.25
81.80
84.15
84.01
82.05
78.99
75.56
72.31
69.61
67.46
65.66
63.98
62.26
60.47
58.69
56.91
54.98
52.52
49.09
44.31
38.07
30.63
22.57
14.56
7.15
0.50
-5.62
-11.70
-18.29
-25.71
-33.89
-42.41
-50.66
-58.11
-64.53
-70.17
-75.78
-82.39
-90.94
-101.68
-113.72
-124.90
-132.15
-132.34
-123.38
-104.98
-78.84
-48.24
-16.99
11.61
35.42
53.68
66.66
75.07
79.73
81.34
80.59
78.24
75.11
71.95
69.28
67.27
65.73
64.35
62.84
61.12
59.30
57.57
56.01
54.45
52.48
49.52
45.13
39.14
31.85
23.93
16.18
9.20
3.20
-2.11
-7.35
-13.20
-20.06
-27.95
-36.46
-44.96
-52.77
-59.49
-65.06
-69.86
-74.64
-80.38
-87.95
-97.73
-109.15
-120.46
-128.92
-131.42
-125.52
-110.32
-86.89
-58.06
-27.54
1.18
25.66
44.82
58.73
68.09
73.70
76.25
76.32
74.53
71.60
68.31
65.33
63.04
61.48
60.38
59.38
58.20
56.78
55.28
53.92
52.74
51.46
49.53
46.26
41.18
34.35
26.39
18.31
11.06
5.12
0.30
-4.16
-9.18
-15.41
-22.90
-31.15
-39.38
-46.85
-53.21
-58.53
-63.29
-68.17
-73.99
-81.43
-90.81
-101.67
-112.51
-120.82
-123.69
-118.64
-104.65
-82.61
-55.16
-25.87
1.81
25.44
43.89
57.13
65.85
70.87
72.94
72.67
70.66
67.55
64.04
60.79
58.23
56.48
55.31
54.32
53.15
51.63
49.88
48.16
46.62
45.09
43.10
40.01
35.36
29.12
21.78
14.19
7.18
1.26
-3.65
-8.15
-13.09
-19.14
-26.51
-34.82
-43.34
-51.25
-58.06
-63.74
-68.72
-73.72
-79.61
-87.16
-96.69
-107.74
-118.87
-127.65
-131.26
-127.24
-114.49
-93.69
-67.18
-38.29
-10.27
14.42
34.50
49.71
60.47
67.37
71.06
72.12
71.19
68.99
66.21
63.49
61.19
59.39
57.92
56.53
55.07
53.57
52.16
50.98
49.94
48.65
46.56
43.13
38.11
31.67
24.34
16.85
9.79
3.49
-2.14
-7.50
-13.14
-19.49
-26.72
-34.61
-42.67
-50.28
-56.96
-62.60
-67.58
-72.73
-79.14
-87.62
-98.23
-109.87
-120.28
-126.51
-125.77
-116.40
-98.48
-73.81
-45.39
-16.54
9.96
32.35
49.90
62.67
71.09
75.77
77.38
76.65
74.41
71.44
68.41
65.76
63.62
61.92
60.51
59.23
58.06
57.03
56.12
55.16
53.72
51.32
47.54
42.27
35.74
28.51
21.22
14.34
7.98
1.93
-4.24
-10.96
-18.47
-26.72
-35.37
-43.96
-51.99
-59.15
-65.44
-71.25
-77.34
-84.62
-93.78
-104.75
-116.35
-126.23
-131.38
-129.02
-117.57
-97.27
-70.29
-40.02
-10.14
16.37
37.77
53.64
64.47
71.15
74.60
75.59
74.73
72.59
69.72
66.64
63.83
61.56
59.96
58.98
58.48
58.23
58.05
57.69
56.88
55.29
52.58
48.57
43.27
36.94
30.03
23.01
16.19
9.63
3.12
-3.62
-10.78
-18.34
-26.07
-33.57
-40.52
-46.85
-52.80
-59.02
-66.31
-75.31
-86.00
-97.37
-107.31
-113.05
-111.90
-102.23
-84.08
-59.18
-30.56
-1.59
24.87
47.00
64.07
76.25
84.12
88.37
89.68
88.62
85.84
82.01
77.82
73.87
70.58
68.08
66.27
64.85
63.47
61.81
59.65
56.88
53.47
49.48
44.92
39.73
33.77
26.88
18.93
10.01
0.38
-9.50
-19.09
-27.98
-35.95
-43.10
-49.80
-56.65
-64.34
-73.50
-84.31
-96.26
-107.89
-116.89
-120.58
-116.73
-104.32
-83.99
-57.93
-29.25
-1.09
24.07
44.78
60.50
71.24
77.28
79.02
77.06
72.33
66.02
59.39
53.50
48.93
45.71
43.46
41.68
40.01
38.38
36.93
35.76
34.76
33.37
30.82
26.34
19.51
10.53
0.15
-10.54
-20.52
-29.21
-36.63
-43.36
-50.30
-58.42
-68.40
-80.32
-93.39
-105.83
-115.09
-118.42
-113.69
-100.21
-79.08
-52.97
-25.30
0.69
22.71
39.67
51.42
58.34
60.87
59.46
54.68
47.35
38.62
29.72
21.73
15.28
10.52
7.22
5.03
3.64
2.86
2.42
1.94
0.74
-1.95
-6.72
-13.68
-22.38
-31.86
-41.05
-49.16
-56.00
-62.06
-68.31
-75.88
-85.52
-97.13
-109.47
-120.23
-126.43
-125.31
-115.14
-95.94
-69.51
-39.00
-7.97
20.51
44.44
62.93
75.99
84.04
87.68
87.61
84.69
79.94
74.45
69.13
64.52
60.74
57.59
54.77
52.11
49.57
47.26
45.21
43.27
41.02
37.81
32.94
25.89
16.54
5.34
-6.82
-18.80
-29.59
-38.68
-46.24
-53.17
-60.79
-70.43
-82.77
-97.34
-112.22
-124.26
-129.88
-126.15
-111.84
-88.00
-57.71
-25.17
5.61
31.83
52.42
67.78
79.08
87.52
93.80
98.10
100.33
100.47
98.81
95.92
92.40
88.68
84.84
80.71
76.13
71.10
65.87
60.84
56.37
52.46
48.74
44.52
38.98
31.52
22.02
10.91
-0.95
-12.56
-23.12
-32.28
-40.16
-47.30
-54.43
-62.29
-71.55
-82.66
-95.55
-109.33
-122.10
-131.07
-133.25
-126.33
-109.61
-84.43
-53.78
-21.49
8.92
35.06
55.96
71.84
83.52
91.96
97.89
101.74
103.73
104.01
102.69
99.97
96.08
91.27
85.89
80.30
74.92
70.14
66.19
63.04
60.29
57.28
53.27
47.73
40.61
32.30
23.50
14.89
6.81
-0.90
-8.65
-16.95
-25.93
-35.30
-44.41
-52.60
-59.51
-65.29
-70.63
-76.57
-84.19
-94.18
-106.37
-119.43
-130.86
-137.48
-136.28
-125.44
-105.04
-77.15
-45.29
-13.32
15.60
39.67
58.44
72.45
82.55
89.54
93.93
96.10
96.40
95.26
93.18
90.55
87.63
84.45
80.99
77.28
73.50
69.94
66.88
64.39
62.24
59.91
56.78
52.31
46.29
38.91
30.79
22.66
15.20
8.70
2.95
-2.63
-8.75
-15.88
-24.06
-32.84
-41.51
-49.35
-55.99
-61.54
-66.58
-72.09
-79.11
-88.41
-99.98
-112.69
-124.21
-131.48
-131.53
-122.44
-104.11
-78.33
-48.32
-17.67
10.52
34.27
52.82
66.35
75.54
81.23
84.16
84.95
84.13
82.15
79.39
76.16
72.70
69.20
65.79
62.63
59.86
57.58
55.75
54.12
52.25
49.57
45.65
40.32
33.77
26.46
18.87
11.33
3.90
-3.63
-11.51
-19.85
-28.52
-37.16
-45.31
-52.67
-59.20
-65.26
-71.50
-78.69
-87.39
-97.67
-108.74
-118.87
-125.63
-126.47
-119.55
-104.37
-82.17
-55.57
-27.92
-2.33
19.04
35.28
46.52
53.46
56.86
57.35
55.35
51.29
45.76
39.59
33.68
28.82
25.39
23.33
22.16
21.26
20.12
18.51
16.51
14.30
11.92
9.14
5.49
0.46
-6.23
-14.35
-23.27
-32.03
-39.75
-45.97
-50.74
-54.67
-58.72
-63.87
-70.85
-79.85
-90.24
-100.58
-108.70
-112.14
-108.79
-97.56
-78.86
-54.57
-27.57
-0.96
22.74
42.04
56.57
66.68
73.10
76.47
77.31
75.95
72.75
68.17
62.78
57.27
52.22
48.05
44.92
42.70
41.06
39.55
37.74
35.35
32.27
28.54
24.31
19.65
14.52
8.85
2.51
-4.44
-11.84
-19.42
-26.90
-34.10
-40.96
-47.55
-54.06
-60.82
-68.29
-77.04
-87.38
-99.07
-110.88
-120.64
-125.64
-123.46
-112.72
-93.68
-68.19
-39.20
-9.98
16.66
38.84
55.80
67.77
75.61
80.44
83.19
84.46
84.42
83.03
80.29
76.43
71.89
67.25
62.96
59.18
55.86
52.75
49.61
46.28
42.69
38.84
34.67
30.09
24.97
19.15
12.53
5.15
-2.84
-11.19
-19.56
-27.68
-35.34
-42.58
-49.56
-56.65
-64.26
-72.86
-82.76
-93.85
-105.32
-115.53
-122.11
-122.58
-115.07
-99.10
-75.84
-47.95
-18.73
8.74
32.35
51.22
65.43
75.59
82.36
86.25
87.58
86.70
84.08
80.39
76.36
72.64
69.60
67.25
65.32
63.48
61.50
59.39
57.36
55.60
54.10
52.50
50.18
46.39
40.71
33.20
24.52
15.68
7.66
0.99
-4.45
-9.36
-14.68
-21.08
-28.75
-37.31
-46.00
-54.06
-61.03
-66.88
-71.98
-77.07
-83.03
-90.65
-100.33
-111.68
-123.25
-132.49
-136.37
-132.17
-118.51
-95.92
-66.84
-34.86
-3.76
23.52
45.37
61.49
72.49
79.30
82.86
83.92
83.12
81.05
78.34
75.58
73.18
71.30
69.79
68.36
66.73
64.79
62.66
60.60
58.81
57.23
55.50
53.06
49.33
44.06
37.42
29.97
22.53
15.79
10.09
5.23
0.61
-4.57
-10.91
-18.54
-27.08
-35.82
-43.97
-51.03
-56.93
-62.14
-67.50
-73.97
-82.29
-92.62
-104.19
-115.16
-122.91
-124.69
-118.42
-103.40
-80.68
-52.77
-22.92
5.60
30.28
49.70
63.50
72.13
76.50
77.66
76.53
73.81
70.01
65.56
60.89
56.50
52.83
50.12
48.33
47.10
45.97
44.50
42.41
39.67
36.37
32.61
28.40
23.58
17.94
11.31
3.68
-4.71
-13.43
-22.01
-30.07
-37.43
-44.15
-50.40
-56.46
-62.66
-69.45
-77.36
-86.80
-97.68
-109.07
-119.04
-124.98
-124.34
-115.48
-98.35
-74.68
-47.42
-19.94
4.93
25.38
40.75
51.16
57.07
59.02
57.48
53.09
46.76
39.67
33.09
28.04
24.93
23.54
23.17
22.97
22.35
21.18
19.74
18.45
17.45
16.47
14.78
11.53
6.14
-1.37
-10.33
-19.72
-28.51
-36.14
-42.53
-48.14
-53.65
-59.80
-67.18
-76.09
-86.31
-96.88
-105.99
-111.18
-109.98
-100.70
-83.10
-58.65
-30.25
-1.30
25.11
46.93
63.33
74.53
81.27
84.43
84.72
82.72
78.92
73.95
68.52
63.38
59.11
55.99
53.91
52.48
51.20
49.63
47.52
44.81
41.58
37.88
33.61
28.54
22.29
14.60
5.50
-4.65
-15.13
-25.13
-34.03
-41.59
-48.07
-54.09
-60.49
-68.11
-77.48
-88.66
-100.91
-112.54
-121.08
-123.78
-118.35
-103.85
-81.08
-52.49
-21.54
8.30
34.35
55.18
70.62
81.30
88.18
92.09
93.59
93.05
90.75
87.07
82.54
77.78
73.32
69.54
66.53
64.18
62.21
60.28
58.04
55.21
51.61
47.15
41.84
35.76
29.01
21.63
13.66
5.11
-3.90
-13.20
-22.53
-31.60
-40.15
-48.02
-55.17
-61.83
-68.47
-75.81
-84.63
-95.31
-107.33
-118.99
-127.55
-129.92
-123.66
-107.90
-83.78
-54.15
-22.67
7.18
32.96
53.44
68.44
78.48
84.31
86.75
86.62
84.71
81.70
78.15
74.41
70.69
67.13
63.81
60.91
58.58
56.97
56.09
55.74
55.48
54.68
52.67
48.90
43.17
35.79
27.42
18.94
11.11
4.27
-1.78
-7.63
-13.99
-21.28
-29.46
-38.04
-46.31
-53.70
-60.04
-65.59
-71.02
-77.18
-84.87
-94.50
-105.76
-117.28
-126.64
-130.77
-126.77
-112.97
-89.64
-59.16
-25.31
7.78
36.75
59.70
76.19
86.86
92.82
95.18
94.92
92.83
89.65
86.07
82.59
79.55
77.01
74.81
72.81
70.91
69.18
67.74
66.59
65.52
64.06
61.52
57.35
51.29
43.54
34.79
25.92
17.72
10.58
4.32
-1.63
-8.02
-15.37
-23.73
-32.67
-41.52
-49.66
-56.82
-63.24
-69.60
-76.82
-85.65
-96.35
-108.25
-119.62
-127.89
-130.19
-124.21
-109.02
-85.47
-56.13
-24.64
5.33
30.92
50.57
64.07
72.09
75.68
75.82
73.29
68.74
62.81
56.31
50.10
44.90
41.15
38.87
37.71
37.13
36.58
35.62
34.04
31.74
28.75
25.08
20.65
15.37
9.08
1.70
-6.62
-15.58
-24.70
-33.45
-41.46
-48.60
-55.05
-61.19
-67.58
-74.83
-83.44
-93.64
-105.05
-116.53
-126.08
-131.22
-129.60
-119.74
-101.62
-76.86
-48.24
-19.01
7.96
30.69
48.26
60.57
68.04
71.25
70.87
67.61
62.31
55.97
49.61
44.16
40.25
38.07
37.39
37.65
38.16
38.34
37.81
36.46
34.36
31.60
28.18
23.92
18.56
11.88
3.89
-5.12
-14.55
-23.74
-32.13
-39.50
-45.96
-51.96
-58.12
-65.16
-73.71
-84.08
-95.92
-107.96
-117.92
-122.93
-120.34
-108.61
-87.95
-60.42
-29.37
1.53
29.18
51.63
68.19
79.15
85.30
87.65
87.12
84.48
80.40
75.45
70.19
65.12
60.71
57.25
54.83
53.24
52.09
50.83
48.96
46.14
42.29
37.56
32.19
26.41
20.24
13.51
5.96
-2.54
-11.84
-21.46
-30.78
-39.27
-46.71
-53.28
-59.42
-65.78
-72.98
-81.55
-91.69
-102.96
-114.01
-122.54
-125.68
-120.81
-106.55
-83.35
-53.63
-21.10
10.26
37.26
58.14
72.62
81.55
86.27
88.09
87.94
86.33
83.51
79.70
75.29
70.82
66.87
63.89
61.96
60.82
60.00
58.95
57.28
54.80
51.48
47.33
42.34
36.45
29.66
22.07
13.93
5.57
-2.76
-10.94
-19.03
-27.13
-35.30
-43.48
-51.50
-59.22
-66.74
-74.53
-83.30
-93.70
-105.75
-118.35
-129.17
-135.09
-133.13
-121.46
-100.22
-71.57
-39.06
-6.62
22.51
46.37
64.36
76.89
84.83
89.09
90.40
89.37
86.56
82.58
78.13
73.84
70.17
67.34
65.37
64.16
63.51
63.16
62.76
61.79
59.75
56.28
51.34
45.25
38.49
31.45
24.29
16.86
8.93
0.34
-8.82
-18.24
-27.49
-36.21
-44.22
-51.62
-58.81
-66.48
-75.41
-86.11
-98.30
-110.59
-120.44
-124.77
-120.85
-107.35
-84.88
-55.93
-24.10
6.88
34.10
55.87
71.74
82.05
87.57
89.13
87.53
83.52
77.90
71.47
65.05
59.31
54.72
51.42
49.22
47.70
46.34
44.71
42.59
39.95
36.85
33.28
29.03
23.74
17.06
8.84
-0.73
-11.13
-21.65
-31.60
-40.55
-48.41
-55.49
-62.34
-69.74
-78.42
-88.86
-100.96
-113.76
-125.32
-133.01
-134.10
-126.69
-110.36
-86.48
-57.82
-27.77
0.54
24.90
44.20
58.14
66.90
70.83
70.43
66.43
59.89
52.17
44.65
38.45
34.11
31.55
30.20
29.33
28.38
27.13
25.70
24.30
22.97
21.41
18.96
14.86
8.60
0.22
-9.68
-20.08
-29.93
-38.49
-45.57
-51.54
-57.23
-63.67
-71.79
-82.07
-94.12
-106.43
-116.43
-121.01
-117.38
-104.08
-81.59
-52.36
-20.09
11.33
38.82
60.69
76.58
87.04
92.94
95.07
94.04
90.46
85.08
78.87
72.88
67.95
64.43
62.10
60.30
58.31
55.66
52.32
48.60
44.90
41.35
37.67
33.28
27.53
20.03
10.83
0.42
-10.45
-20.97
-30.60
-39.16
-46.83
-54.12
-61.77
-70.60
-81.26
-93.85
-107.50
-120.14
-128.76
-130.11
-121.80
-103.25
-76.07
-43.72
-10.43
19.97
44.97
63.73
76.64
84.76
89.17
90.70
89.91
87.29
83.42
78.96
74.58
70.76
67.63
65.04
62.62
59.99
56.97
53.53
49.79
45.88
41.78
37.35
32.35
26.50
19.62
11.67
2.78
-6.76
-16.53
-26.08
-34.99
-43.02
-50.22
-56.94
-63.86
-71.82
-81.56
-93.33
-106.42
-118.99
-128.23
-131.08
-125.06
-109.22
-84.56
-53.79
-20.65
11.10
38.60
60.29
75.89
86.08
91.91
94.44
94.52
92.79
89.74
85.85
81.55
77.27
73.29
69.76
66.71
64.08
61.81
59.76
57.74
55.39
52.27
47.97
42.27
35.32
27.59
19.72
12.28
5.44
-1.04
-7.68
-15.06
-23.44
-32.65
-42.10
-51.07
-58.95
-65.54
-71.17
-76.66
-83.09
-91.46
-102.14
-114.46
-126.43
-135.05
